MASS ABSORBTION COEFFICIENTS

Comments:

Each elements data starts with a line including the word "BEGIN" folllowed
by (in order):
	Element's name
	Chemical symbol
	Z - atomic number
	A - Atomic weight
	Density (in gr/cm^3)

Following the opening line the data is written as pairs of numbers.  The first
entry of the pair is photon energy (in keV) and the second is mass absorbtion
coefficient (in cm^2/gr).  The elements data ends with the word "END".  Blank
lines and comments are allowed.

begin	Vacuum			_V	 0	  1e-18		 1e-18

	  1e-3		    1e-18
	  1e0		    1e-18
	  1e3		    1e-18

end

begin	Hydrogen		H	 1	  1.008		 0.00008375

	  1.000		    7.217
	  1.500		    2.148
	  2.000		    1.059
	  3.000		    0.5612
	  5.000		    0.4193
	 10.000		    0.3854
	 15.000		    0.3764
	 20.000		    0.3695
	 30.000		    0.3570
	 50.000		    0.3355
	100.000		    0.2944
	150.000			0.2651
	200.000			0.2429
	300.000			0.2112
	500.000			0.1729

end

begin	Helium			He	 2	  4.003		 0.0001663

	  1.000		   60.84
	  1.500		   16.76
	  2.000		    6.863
	  3.000		    2.007
	  5.000		    0.5766
	 10.000		    0.2476
	 15.000		    0.2092
	 20.000		    0.1960
	 30.000		    0.1838
	 50.000		    0.1703
	100.000		    0.1486
	150.000			0.1336
	200.000			0.1224
	300.000			0.1064
	500.000			0.08707

end

begin	Lithium			Li	 3	  6.941		 0.5340

	  1.000		  233.9
	  1.500		   66.68
	  2.000		   27.07
	  3.000		    7.549
	  5.000		    1.619
	 10.000		    0.3395
	 15.000		    0.2176
	 20.000		    0.1856
	 30.000		    0.1644
	 50.000		    0.1488
	100.000		    0.1289
	150.000			0.1158
	200.000			0.1060
	300.000			0.09210
	500.000			0.07532

end

begin	Beryllium		Be	 4	  9.012		 1.848

	  1.000		  604.1
	  1.500		  179.7
	  2.000		   74.69
	  3.000		   21.27
	  5.000		    4.369
	 10.000		    0.6466
	 15.000		    0.3070
	 20.000		    0.2251
	 30.000		    0.1792
	 50.000		    0.1554
	100.000		    0.1328
	150.000			0.1190
	200.000			0.1089
	300.000			0.09463
	500.000			0.07739

end

begin	Boron			B	 5	 10.81		 2.370

	  1.000		 1229.
	  1.500		  376.6
	  2.000		  159.7
	  3.000		   46.67
	  5.000		    9.683
	 10.000		    1.255
	 15.000		    0.4827
	 20.000		    0.3014
	 30.000		    0.2063
	 50.000		    0.1665
	100.000		    0.1391
	150.000			0.1243
	200.000			0.1136
	300.000			0.09862
	500.000			0.08065

end

begin	Carbon			C	 6	 12.00		 1.700

	  1.000		 2211.
	  1.500		  700.2
	  2.000		  302.6
	  3.000		   90.33
	  5.000		   19.12
	 10.000		    2.373
	 15.000		    0.8071
	 20.000		    0.4420
	 30.000		    0.2562
	 50.000		    0.1871
	100.000		    0.1514
	150.000			0.1347
	200.000			0.1229
	300.000			0.1066
	500.000			0.08715

end

begin	Nitrogen		N	 7	 14.01		 0.001165

	  1.000		 3311.
	  1.500		 1083.
	  2.000		  476.9
	  3.000		  145.6
	  5.000		   31.44
	 10.000		    3.879
	 15.000		    1.236
	 20.000		    0.6178
	 30.000		    0.3066
	 50.000		    0.1980
	100.000		    0.1529
	150.000			0.1353
	200.000			0.1233
	300.000			0.1068
	500.000			0.08719

end

begin	Oxygen			O	 8	 16.00		 0.001332

	  1.000		 4590.
	  1.500		 1549.
	  2.000		  694.9
	  3.000		  217.1
	  5.000		   47.90
	 10.000		    5.952
	 15.000		    1.836
	 20.000		    0.8651
	 30.000		    0.3779
	 50.000		    0.2132
	100.000		    0.1551
	150.000			0.1361
	200.000			0.1237
	300.000			0.1070
	500.000			0.08729

end

begin	Fluorine		F	 9	 19.00		 0.001580

	  1.000		 5649.
	  1.500		 1979.
	  2.000		  904.7
	  3.000		  288.8
	  5.000		   65.14
	 10.000		    8.205
	 15.000		    2.592
	 20.000		    1.133
	 30.000		    0.4487
	 50.000		    0.2214
	100.000		    0.1496
	150.000			0.1298
	200.000			0.1176
	300.000			0.1015
	500.000			0.08274

end

begin	Neon			Ne	10	 20.18		 0.0008385

	  1.000		 7409.
	  1.500		 2666.
	  2.000		 1243.
	  3.000		  405.1
	  5.000		   93.39
	 10.000		   11.97
	 15.000		    3.613
	 20.000		    1.606
	 30.000		    0.5923
	 50.000		    0.2579
	100.000		    0.1600
	150.000			0.1370
	200.000			0.1236
	300.000			0.1064
	500.000			0.08664

end

begin	Sodium			Na	11	 22.99		 0.9710

	  1.000		  654.2
	  1.035		  596.0
	  1.072		  542.9

	  1.072		 6435.
	  1.500		 3194.
	  2.000		 1521.
	  3.000		  507.0
	  5.000		  119.4
	 10.000		   15.57
	 15.000		    4.694
	 20.000		    2.057
	 30.000		    0.7197
	 50.000		    0.2804
	100.000		    0.1585
	150.000			0.1335
	200.000			0.1199
	300.000			0.1029
	500.000			0.08372

end

begin	Magnesium		Mg	12	 24.31		 1.740

	  1.000		  922.5
	  1.142		  647.4
	  1.305		  453.0

	  1.305		 5444.
	  1.500		 4004.
	  2.000		 1932.
	  3.000		  658.5
	  5.000		  158.3
	 10.000		   21.05
	 15.000		    6.358
	 20.000		    2.763
	 30.000		    0.9306
	 50.000		    0.3292
	100.000		    0.1686
	150.000			0.1394
	200.000			0.1245
	300.000			0.1065
	500.000			0.08647

end

begin	Aluminum		Al	13	 26.98		 2.699

	  1.000		 1185.
	  1.500		  402.2
	  1.560		  362.1

	  1.560		 3957.
	  2.000		 2263.
	  3.000		  788.0
	  5.000		  193.4
	 10.000		   26.23
	 15.000		    7.955
	 20.000		    3.441
	 30.000		    1.128
	 50.000		    0.3681
	100.000		    0.1704
	150.000			0.1378
	200.000			0.1223
	300.000			0.1042
	500.000			0.08445

end

begin	Silicon			Si	14	 28.09		 2.330

	  1.000		 1570.
	  1.500		  535.5
	  1.839		  309.2

	  1.839		 3192.
	  2.000		 2777.
	  3.000		  978.4
	  5.000		  245.0
	 10.000		   33.89
	 15.000		   10.34
	 20.000		    4.464
	 30.000		    1.436
	 50.000		    0.4385
	100.000		    0.1835
	150.000			0.1448
	200.000			0.1275
	300.000			0.1082
	500.000			0.08748

end

begin	Phosphorus		P	15	 30.97		 2.200

	  1.000		 1913.
	  1.500		  654.7
	  2.000		  301.8
	  2.146		  249.4

	  2.146		 2473.
	  3.000		 1118.
	  5.000		  286.0
	 10.000		   40.35
	 15.000		   12.39
	 20.000		    5.352
	 30.000		    1.700
	 50.000		    0.4916
	100.000		    0.1865
	150.000			0.1432
	200.000			0.1250
	300.000			0.1055
	500.000			0.08511

end

begin	Sulfur			S	16	 32.07		 2.000

	  1.000		 2429.
	  1.500		  834.2
	  2.000		  385.3
	  2.472		  216.8

	  2.472		 2070.
	  3.000		 1339.
	  5.000		  348.7
	 10.000		   50.12
	 15.000		   15.50
	 20.000		    6.708
	 30.000		    2.113
	 50.000		    0.5849
	100.000		    0.2020
	150.000			0.1506
	200.000			0.1302
	300.000			0.1091
	500.000			0.08781

end

begin	Chlorine		Cl	17	 35.45		 0.002995

	  1.000		 2832.
	  1.500		  977.1
	  2.000		  452.0
	  2.822		  177.4

	  2.822		 1637.
	  3.000		 1473.
	  5.000		  390.1
	 10.000		   57.25
	 15.000		   17.84
	 20.000		    7.739
	 30.000		    2.425
	 50.000		    0.6483
	100.000		    0.2050
	150.000			0.1480
	200.000			0.1266
	300.000			0.1054
	500.000			0.08453

end

begin	Argon			Ar	18	 39.95		 0.001662

	  1.000		 3184.
	  1.500		 1105.
	  2.000		  512.0
	  3.000		  170.3
	  3.203		  142.4

	  3.203		 1275.
	  4.000		  757.2
	  5.000		  422.5
	 10.000		   63.16
	 15.000		   19.83
	 20.000		    8.629
	 30.000		    2.697
	 50.000		    0.7012
	100.000		    0.2043
	150.000			0.1427
	200.000			0.1205
	300.000			0.09953
	500.000			0.07958

end

begin	Potassium		K	19	 39.10		 0.8620

	  1.000		 4058.
	  1.500		 1418.
	  2.000		  659.2
	  3.000		  219.8
	  3.607		  132.7

	  3.607		 1201.
	  4.000		  925.6
	  5.000		  518.9
	 10.000		   79.07
	 15.000		   25.03
	 20.000		   10.93
	 30.000		    3.413
	 50.000		    0.8679
	100.000		    0.2345
	150.000			0.1582
	200.000			0.1319
	300.000			0.1080
	500.000			0.08600

end

begin	Calcium			Ca	20	 40.08		 1.550

	  1.000		 4867.
	  1.500		 1714.
	  2.000		  799.9
	  3.000		  267.6
	  4.038		  118.7

	  4.038		 1023.
	  5.000		  602.6
	 10.000		   93.41
	 15.000		   29.79
	 20.000		   13.06
	 30.000		    4.080
	 50.000		    1.019
	100.000		    0.2571
	150.000			0.1674
	200.000			0.1376
	300.000			0.1116
	500.000			0.08851

end

begin	Scandium		Sc	21	 44.96		 2.989

	  1.000		 5238.
	  1.500		 1858.
	  2.000		  870.6
	  3.000		  292.2
	  4.000		  133.2
	  4.493		   96.87

	  4.493		  814.8
	  5.000		  630.5
	 10.000		   99.52
	 15.000		   32.02
	 20.000		   14.09
	 30.000		    4.409
	 50.000		    1.087
	100.000		    0.2577
	150.000			0.1619
	200.000			0.1310
	300.000			0.1052
	500.000			0.08305

end

begin	Titanium		Ti	22	 47.87		 4.540

	  1.000		 5869.
	  1.500		 2096.
	  2.000		  986.0
	  3.000		  332.3
	  4.000		  151.7
	  4.966		   83.8

	  4.966		  687.8
	  6.000		  432.3
	 10.000		  110.7
	 15.000		   35.87
	 20.000		   15.85
	 30.000		    4.972
	 50.000		    1.213
	100.000		    0.2721
	150.000			0.1649
	200.000			0.1314
	300.000			0.1043
	500.000			0.08191

end

begin	Vanadium		V	23	 50.94		 6.110

	  1.000		 6495.
	  1.500		 2342.
	  2.000		 1106.
	  3.000		  374.3
	  5.000		   92.91
	  5.465		   72.77

	  5.465		  587.0
	  6.000		  468.7
	 10.000		  121.8
	 15.000		   39.83
	 20.000		   17.68
	 30.000		    5.564
	 50.000		    1.347
	100.000		    0.2877
	150.000			0.1682
	200.000			0.1318
	300.000			0.1034
	500.000			0.08074

end

begin	Chromium		Cr	24	 52.00		 7.180

	  1.000		 7405.
	  1.500		 2694.
	  2.000		 1277.
	  3.000		  433.9
	  5.000		  108.0
	  5.989		   65.74

	  5.989		  597.7
	  8.000		  251.3
	 10.000		  138.6
	 15.000		   45.71
	 20.000		   20.38
	 30.000		    6.434
	 50.000		    1.550
	100.000		    0.3166
	150.000			0.1788
	200.000			0.1378
	300.000			0.1067
	500.000			0.08281

end

begin	Manganese		Mn	25	 54.94		 7.440

	  1.000		 8093.
	  1.500		 2984.
	  2.000		 1421.
	  3.000		  485.1
	  5.000		  121.2
	  6.539		   58.03

	  6.539		  452.0
	  8.000		  273.4
	 10.000		  151.4
	 15.000		   50.27
	 20.000		   22.53
	 30.000		    7.141
	 50.000		    1.714
	100.000		    0.3367
	150.000			0.1838
	200.000			0.1391
	300.000			0.1062
	500.000			0.08192

end

begin	Iron			Fe	26	 55.85		 7.874

	  1.000		 9085.
	  1.500		 3399.
	  2.000		 1626.
	  3.000		  557.6
	  5.000		  139.8
	  6.000		   84.84
	  7.112		   53.19

	  7.112		  407.6
	  8.000		  305.6
	 10.000		  170.6
	 15.000		   57.08
	 20.000		   25.68
	 30.000		    8.176
	 50.000		    1.958
	100.000		    0.3717
	150.000			0.1964
	200.000			0.1460
	300.000			0.1099
	500.000			0.08414

end

begin	Cobalt			Co	27	 58.93		 8.900

	  1.000		 9796.
	  1.500		 3697.
	  2.000		 1779.
	  3.000		  612.9
	  5.000		  154.3
	  6.000		   93.70
	  7.709		   47.10

	  7.709		  355.5
	 10.000		  184.1
	 15.000		   62.01
	 20.000		   28.03
	 30.000		    8.962
	 50.000		    2.144
	100.000		    0.3949
	150.000			0.2023
	200.000			0.1476
	300.000			0.1094
	500.000			0.08315

end

begin	Nickel			Ni	28	 58.69		 8.902

	  1.000		 9855.
	  1.004		 9753.
	  1.008		 9654.

	  1.008		10990.
	  1.500		 4234.
	  2.000		 2049.
	  3.000		  709.4
	  5.000		  179.3
	  6.000		  109.0
	  8.333		   44.28

	  8.333		  329.4
	 10.000		  209.0
	 15.000		   70.81
	 20.000		   32.20
	 30.000		   10.34
	 50.000		    2.474
	100.000		    0.4440
	150.000			0.2208
	200.000			0.1582
	300.000			0.1154
	500.000			0.08698

end

begin	Copper			Cu	29	 63.55		 8.960

	  1.000		10570.
	  1.047		 9307.
	  1.096		 8242.

	  1.096		 9347.
	  1.500		 4418.
	  2.000		 2154.
	  3.000		  748.8
	  5.000		  189.9
	  8.000		   52.55
	  8.979		   38.29

	  8.979		  278.4
	 10.000		  215.9
	 15.000		   74.05
	 20.000		   33.79
	 30.000		   10.92
	 50.000		    2.613
	100.000		    0.4584
	150.000			0.2217
	200.000			0.1559
	300.000			0.1119
	500.000			0.08362

end

begin	Zinc			Zn	30	 65.39		 7.133

	  1.000		 1553.
	  1.010		 1518.
	  1.020		 1484.

	  1.020		 3804.
	  1.031		 5097.
	  1.043		 6518.

	  1.043		 8274.
	  1.116		 8452.
	  1.194		 7371.

	  1.194		 8396.
	  1.500		 4825.
	  2.000		 2375.
	  3.000		  831.1
	  5.000		  211.8
	  8.000		   58.75
	  9.659		   35.05

	  9.659		  253.6
	 10.000		  233.1
	 15.000		   81.17
	 20.000		   37.19
	 30.000		   12.07
	 50.000		    2.892
	100.000		    0.4973
	150.000			0.2341
	200.000			0.1617
	300.000			0.1141
	500.000			0.08450

end

begin	Gallium			Ga	31	 69.72		 5.904

	  1.000		 1697.
	  1.056		 1492.
	  1.115		 1312.

	  1.115		 3990.
	  1.129		 4887.
	  1.142		 5664.

	  1.142		 7405.
	  1.218		 7138.
	  1.300		 6358.

	  1.300		 7206.
	  1.500		 5087.
	  2.000		 2515.
	  3.000		  885.7
	  5.000		  226.6
	 10.000		   34.21
	 10.367		   30.99

	 10.367		  221.4
	 15.000		   85.37
	 20.000		   39.28
	 30.000		   12.81
	 50.000		    3.076
	100.000		    0.5197
	150.000			0.2387
	200.000			0.1619
	300.000			0.1123
	500.000			0.08236

end

begin	Germanium		Ge	32	 72.61		 5.323

	  1.000		 1893.
	  1.103		 1502.
	  1.217		 1190.

	  1.217		 4389.
	  1.232		 4734.
	  1.248		 4974.

	  1.248		 6698.
	  1.328		 6348.
	  1.414		 5554.

	  1.414		 6287.
	  1.500		 5475.
	  2.000		 2711.
	  3.000		  961.3
	  5.000		  247.2
	 10.000		   37.42
	 11.103		   28.11

	 11.103		  198.1
	 15.000		   91.52
	 20.000		   42.22
	 30.000		   13.85
	 50.000		    3.335
	100.000		    0.5550
	150.000			0.2491
	200.000			0.1661
	300.000			0.1131
	500.000			0.08212

end

begin	Arsenic			As	33	 74.92		 5.730

	  1.000		 2121.
	  1.150		 1523.
	  1.323		 1092.

	  1.323		 4513.
	  1.341		 4469.
	  1.359		 4452.

	  1.359		 6093.
	  1.500		 5227.
	  1.527		 4997.

	  1.527		 5653.
	  2.000		 2931.
	  3.000		 1049.
	  5.000		  270.9
	 10.000		   41.15
	 11.867		   25.77

	 11.867		  179.2
	 15.000		   98.56
	 20.000		   45.64
	 30.000		   15.06
	 50.000		    3.635
	100.000		    0.5971
	150.000			0.2622
	200.000			0.1719
	300.000			0.1150
	500.000			0.08259

end

begin	Selenium		Se	34	 78.96		 4.500

	  1.000		 2317.
	  1.198		 1512.
	  1.436		  981.4

	  1.436		 4347.
	  1.456		 4057.
	  1.476		 3907.

	  1.476		 5186.
	  1.500		 5336.
	  1.654		 4342.

	  1.654		 4915.
	  2.000		 3098.
	  3.000		 1116.
	  5.000		  289.6
	 10.000		   44.14
	 12.658		   23.18

	 12.658		  158.9
	 15.000		  103.3
	 20.000		   48.18
	 30.000		   15.96
	 50.000		    3.864
	100.000		    0.6278
	150.000			0.2703
	200.000			0.1742
	300.000			0.1144
	500.000			0.08129

end

begin	Bromine			Br	35	 79.90		 0.007072

	  1.000		 2624.
	  1.500		 1002.
	  1.550		  925.5

	  1.550		 4289.
	  1.573		 3838.
	  1.596		 3587.

	  1.596		 5097.
	  1.686		 4595.
	  1.782		 3969.

	  1.782		 4495.
	  2.000		 3407.
	  3.000		 1231.
	  5.000		  321.3
	 10.000		   49.12
	 13.474		   21.76

	 13.474		  147.1
	 15.000		  111.9
	 20.000		   52.66
	 30.000		   17.53
	 50.000		    4.264
	100.000		    0.6861
	150.000			0.2899
	200.000			0.1838
	300.000			0.1186
	500.000			0.08328

end

begin	Krypton			Kr	36	 83.80		 0.003478

	  1.000		 2854.
	  1.500		 1093.
	  1.675		  836.1

	  1.675		 3909.
	  1.701		 3409.
	  1.727		 3166.

	  1.727		 4566.
	  1.822		 4014.
	  1.921		 3482.

	  1.921		 3948.
	  2.000		 3599.
	  3.000		 1305.
	  5.000		  342.5
	 10.000		   52.57
	 14.326		   19.71

	 14.326		  131.3
	 15.000		  116.8
	 20.000		   55.48
	 30.000		   18.54
	 50.000		    4.523
	100.000		    0.7221
	150.000			0.2998
	200.000			0.1872
	300.000			0.1186
	500.000			0.08226

end

begin	Rubidium		Rb	37	 85.47		 1.532

	  1.000		 3174.
	  1.500		 1219.
	  1.804		  778.2

	  1.804		 3096.
	  1.834		 2969.
	  1.864		 2861.

	  1.864		 3957.
	  2.000		 3410.
	  2.065		 3153.

	  2.065		 3606.
	  3.000		 1418.
	  5.000		  374.4
	 10.000		   57.66
	 15.000		   19.09
	 15.200		   18.42

	 15.200		  120.8
	 20.000		   59.80
	 30.000		   20.09
	 50.000		    4.918
	100.000		    0.7799
	150.000			0.3187
	200.000			0.1960
	300.000			0.1219
	500.000			0.08360

end

begin	Strontium		Sr	38	 87.62		 2.540

	  1.000		 3494.
	  1.500		 1347.
	  1.940		  720.7

	  1.940		 2864.
	  2.000		 2589.
	  2.007		 2571.

	  2.007		 3577.
	  2.109		 3201.
	  2.216		 2842.

	  2.216		 3241.
	  3.000		 1525.
	  5.000		  405.8
	 10.000		   62.74
	 15.000		   20.79
	 16.105		   17.14

	 16.105		  110.8
	 20.000		   63.86
	 30.000		   21.57
	 50.000		    5.306
	100.000		    0.8365
	150.000			0.3369
	200.000			0.2042
	300.000			0.1247
	500.000			0.08443

end

begin	Yttrium			Y	39	 88.91		 4.469

	  1.000		 3864.
	  1.500		 1493.
	  2.000		  742.2
	  2.080		  673.8

	  2.080		 2627.
	  2.117		 2466.
	  2.156		 2342.

	  2.156		 3264.
	  2.261		 2916.
	  2.372		 2597.

	  2.372		 2962.
	  3.000		 1654.
	  5.000		  442.4
	 10.000		   68.71
	 15.000		   22.79
	 17.038		   16.12

	 17.038		  102.9
	 20.000		   68.55
	 30.000		   23.30
	 50.000		    5.764
	100.000		    0.9047
	150.000			0.3595
	200.000			0.2149
	300.000			0.1289
	500.000			0.08613

end

begin	Zirconium		Zr	40	 91.22		 6.506

	  1.000		 4210.
	  1.500		 1631.
	  2.000		  811.5
	  2.222		  625.8

	  2.222		 2392.
	  2.264		 2239.
	  2.307		 2120.

	  2.307		 2953.
	  2.417		 2641.
	  2.532		 2359.

	  2.532		 2691.
	  3.000		 1772.
	  5.000		  475.5
	 10.000		   74.17
	 15.000		   24.63
	 17.998		   15.01

	 17.998		   94.70
	 20.000		   72.37
	 30.000		   24.85
	 50.000		    6.173
	100.000		    0.9658
	150.000			0.3790
	200.000			0.2237
	300.000			0.1318
	500.000			0.08693

end

begin	Niobium			Nb	41	 92.91		 8.570

	  1.000		 4600.
	  1.500		 1786.
	  2.000		  889.3
	  2.370		  584.4

	  2.370		 2181.
	  2.417		 2045.
	  2.465		 1935.

	  2.465		 2694.
	  2.579		 2412.
	  2.698		 2161.

	  2.698		 2470.
	  3.000		 1906.
	  5.000		  513.4
	 10.000		   80.38
	 15.000		   26.72
	 18.986		   14.09

	 18.986		   87.84
	 20.000		   77.12
	 30.000		   26.66
	 50.000		    6.644
	100.000		    1.037
	150.000			0.4023
	200.000			0.2344
	300.000			0.1357
	500.000			0.08831

end

begin	Molybdenum		Mo	42	 95.94		10.22

	  1.000		 4942.
	  1.500		 1925.
	  2.000		  959.3
	  2.520		  541.5

	  2.520		 1979.
	  2.572		 1854.
	  2.625		 1750.

	  2.625		 2433.
	  2.743		 2183.
	  2.866		 1961.

	  2.866		 2243.
	  3.000		 2011.
	  5.000		  545.0
	 10.000		   85.76
	 15.000		   28.54
	 20.000		   13.08

	 20.000		   80.55
	 30.000		   28.10
	 50.000		    7.037
	100.000		    1.096
	150.000			0.4208
	200.000			0.2423
	300.000			0.1379
	500.000			0.08848

end

begin	Technetium		Tc	43	 98.91		11.50

	  1.000		 5356.
	  1.500		 1092.
	  2.000		 1044.
	  2.677		  507.2

	  2.677		 1812.
	  2.734		 1699.
	  2.793		 1602.

	  2.793		 2223.
	  3.000		 1862.
	  3.043		 1800.

	  3.043		 2059.
	  4.000		 1036.
	  5.000		  583.6
	 10.000		   92.31
	 15.000		   30.76
	 20.000		   14.10
	 21.044		   12.29

	 21.044		   74.81
	 30.000		   29.93
	 50.000		    7.521
	100.000		    1.169
	150.000			0.4449
	200.000			0.2534
	300.000			0.1418
	500.000			0.08968

end

begin	Ruthenium		Ru	44	101.1		12.41

	  1.000		 5718.
	  1.500		 2240.
	  2.000		 1120.
	  2.838		  470.4

	  2.838		 1644.
	  2.902		 1542.
	  2.967		 1452.

	  2.967		 2317.
	  3.000		 1963.
	  3.224		 1638.

	  3.224		 1874.
	  4.000		 1095.
	  5.000		  616.5
	 10.000		   98.00
	 15.000		   32.70
	 20.000		   14.99
	 22.117		   11.43

	 22.117		   68.76
	 30.000		   31.39
	 50.000		    7.926
	100.000		    1.232
	150.000			0.4647
	200.000			0.2618
	300.000			0.1440
	500.000			0.08992

end

begin	Rhodium			Rh	45	102.9		12.41

	  1.000		 6169.
	  1.500		 2426.
	  2.000		 1214.
	  3.004		  444.1

	  3.004		 1513.
	  3.074		 1422.
	  3.146		 1337.

	  3.146		 1847.
	  3.276		 1671.
	  3.412		 1512.

	  3.412		 1731.
	  4.000		 1170.
	  5.000		  658.9
	 10.000		  105.3
	 15.000		   35.18
	 20.000		   16.13
	 23.220		   10.79

	 23.220		   64.14
	 30.000		   33.30
	 50.000		    8.448
	100.000		    1.314
	150.000			0.4916
	200.000			0.2742
	300.000			0.1485
	500.000			0.09134

end

begin	Palladium		Pd	46	106.4		12.02

	  1.000		 6538.
	  1.500		 2579.
	  2.000		 1292.
	  3.000		  473.0
	  3.173		  410.6

	  3.173		 1355.
	  3.251		 1287.
	  3.330		 1215.

	  3.330		 1664.
	  3.465		 1518.
	  3.604		 1379.

	  3.604		 1582.
	  4.000		 1227.
	  5.000		  691.2
	 10.000		  111.0
	 15.000		   37.15
	 20.000		   17.04
	 24.350		   10.03

	 24.350		   58.98
	 30.000		   34.65
	 50.000		    8.850
	100.000		    1.377
	150.000			0.5115
	200.000			0.2827
	300.000			0.1506
	500.000			0.09134

end

begin	Silver			Ag	47	107.9		10.50

	  1.000		 7039.
	  1.500		 2790.
	  2.000		 1401.
	  3.000		  513.6
	  3.351		  388.7

	  3.351		 1274.
	  3.436		 1200.
	  3.524		 1126.

	  3.524		 1547.
	  3.662		 1409.
	  3.806		 1282.

	  3.806		 1468.
	  5.000		  738.5
	 10.000		  119.3
	 15.000		   39.98
	 20.000		   18.36
	 25.514		    9.527

	 25.514		   55.39
	 30.000		   36.68
	 50.000		    9.444
	100.000		    1.470
	150.000			0.5426
	200.000			0.2972
	300.000			0.1560
	500.000			0.09321

end

begin	Cadmium			Cd	48	112.4		 8.650

	  1.000		 7350.
	  1.500		 2931.
	  2.000		 1473.
	  3.000		  541.4
	  3.538		  357.5

	  3.538		 1152.
	  3.631		 1083.
	  3.727		 1013.

	  3.727		 1389.
	  4.000		 1170.
	  4.018		 1157.

	  4.018		 1324.
	  5.000		  768.5
	 10.000		  124.4
	 15.000		   41.78
	 20.000		   19.20
	 26.711		    8.809

	 26.711		   50.65
	 30.000		   37.65
	 50.000		    9.779
	100.000		    1.524
	150.000			0.5593
	200.000			0.3038
	300.000			0.1571
	500.000			0.09250

end

begin	Indium			In	49	114.8		 7.310

	  1.000		 7809.
	  1.500		 3131.
	  2.000		 1578.
	  3.000		  580.8
	  3.730		  335.6

	  3.730		 1046.
	  3.833		  993.0
	  3.938		  931.3

	  3.938		 1261.
	  4.000		 1231.
	  4.238		 1066.

	  4.238		 1223.
	  5.000		  813.4
	 10.000		  132.1
	 15.000		   44.45
	 20.000		   20.44
	 27.940		    8.316

	 27.940		   47.33
	 30.000		   39.49
	 50.000		   10.30
	100.000		    1.609
	150.000			0.5876
	200.000			0.3167
	300.000			0.1614
	500.000			0.09371

end

begin	Tin				Sn	50	118.7		 7.310

	  1.000		 8157.
	  1.500		 3296.
	  2.000		 1665.
	  3.000		  614.3
	  3.929		  311.4

	  3.929		  928.5
	  4.000		  939.3
	  4.156		  846.9

	  4.156		 1145.
	  4.308		 1060.
	  4.465		  971.2

	  4.465		 1117.
	  5.000		  847.1
	 10.000		  138.4
	 15.000		   46.64
	 20.000		   21.46
	 29.200		    7.760

	 29.200		   43.60
	 50.000		   10.70
	100.000		    1.676
	150.000			0.6091
	200.000			0.3260
	300.000			0.1639
	500.000			0.09374

end

begin	Antimony		Sb	51	121.8		 6.691

	  1.000		 8582.
	  1.500		 3491.
	  2.000		 1767.
	  3.000		  653.6
	  4.000		  316.9
	  4.132		  291.8

	  4.132		  869.1
	  4.254		  830.8
	  4.380		  777.6

	  4.380		 1050.
	  4.537		  974.3
	  4.698		  893.9

	  4.698		 1029.
	  5.000		  884.6
	 10.000		  145.9
	 15.000		   49.23
	 20.000		   22.68
	 30.000		    7.631
	 30.491		    7.307

	 30.491		   40.73
	 50.000		   11.20
	100.000		    1.758
	150.000			0.6361
	200.000			0.3381
	300.000			0.1677
	500.000			0.09453

end

begin	Tellurium		Te	52	127.6		 6.240

	  1.000		 8434.
	  1.003		 8380.
	  1.006		 8326.

	  1.006		 8684.
	  1.500		 3608.
	  2.000		 1832.
	  3.000		  679.2
	  4.000		  329.7
	  4.341		  267.8

	  4.341		  788.2
	  4.475		  750.4
	  4.612		  699.5

	  4.612		  944.5
	  4.773		  878.2
	  4.939		  806.2

	  4.939		  929.2
	  5.000		  901.4
	 10.000		  150.1
	 15.000		   40.78
	 20.000		   23.41
	 30.000		    7.878
	 31.814		    6.738

	 31.814		   37.19
	 50.000		   11.45
	100.000		    1.801
	150.000			0.6492
	200.000			0.3429
	300.000			0.1679
	500.000			0.09328

end

begin	Iodine			I	53	126.9		 4.930

	  1.000		 9096.
	  1.035		 8465.
	  1.072		 7863.

	  1.072		 8198.
	  1.500		 3919.
	  2.000		 1997.
	  3.000		  742.0
	  4.000		  360.7
	  4.557		  259.2

	  4.557		  755.0
	  4.702		  712.3
	  4.852		  663.6

	  4.852		  894.3
	  5.000		  843.0
	  5.188		  766.5

	  5.188		  883.7
	 10.000		  162.6
	 15.000		   55.12
	 20.000		   25.43
	 30.000		    8.561
	 33.169		    6.553

	 33.169		   35.82
	 50.000		   12.32
	100.000		    1.942
	150.000			0.6978
	200.000			0.3663
	300.000			0.1771
	500.000			0.09701

end

begin	Xenon			Xe	54	131.3		 0.005485

	  1.000		 9413.
	  1.072		 8151.
	  1.149		 7035.

	  1.149		 7338.
	  1.500		 4085.
	  2.000		 2088.
	  3.000		  778.0
	  4.000		  378.7
	  4.782		  240.8

	  4.782		  694.1
	  5.000		  639.2
	  5.104		  604.4

	  5.104		  818.1
	  5.275		  757.9
	  5.453		  699.1

	  5.453		  806.4
	 10.000		  169.0
	 15.000		   57.43
	 20.000		   26.52
	 30.000		    8.930
	 34.561		    6.129

	 34.561		   33.16
	 50.000		   12.72
	100.000		    2.011
	150.000			0.7202
	200.000			0.3760
	300.000			0.1797
	500.000			0.09699

end

begin	Cesium			Cs	55	133.9		 1.873

	  1.000		 9365.
	  1.032		 8775.
	  1.065		 8214.

	  1.065		 8685.
	  1.139		 7576.
	  1.217		 6584.

	  1.217		 6888.
	  1.500		 4335.
	  2.000		 2226.
	  3.000		  831.9
	  5.000		  230.3
	  5.012		  229.0

	  5.012		  667.4
	  5.183		  618.4
	  5.359		  564.5

	  5.359		  769.2
	  5.534		  714.6
	  5.714		  655.6

	  5.714		  754.7
	 10.000		  179.3
	 15.000		   61.04
	 20.000		   28.22
	 30.000		    9.507
	 35.985		    5.863

	 35.985		   31.43
	 50.000		   13.40
	100.000		    2.124
	150.000			0.7589
	200.000			0.3941
	300.000			0.1863
	500.000			0.09912

end

begin	Barium			Ba	56	137.3		 3.500

	  1.000		 8543.
	  1.031		 7990.
	  1.062		 7465.

	  1.062		 8547.
	  1.099		 7957.
	  1.137		 7404.

	  1.137		 7837.
	  1.212		 6861.
	  1.293		 5985.

	  1.293		 6255.
	  1.500		 4499.
	  2.000		 2319.
	  3.000		  869.6
	  5.000		  241.4
	  5.247		  213.5

	  5.247		  609.8
	  5.432		  563.4
	  5.624		  516.9

	  5.624		  701.6
	  5.803		  650.7
	  5.989		  601.3

	  5.989		  693.0
	 10.000		  186.0
	 15.000		   63.47
	 20.000		   29.38
	 30.000		    9.904
	 37.441		    5.498

	 37.441		   29.19
	 50.000		   13.79
	100.000		    2.196
	150.000			0.7828
	200.000			0.4046
	300.000			0.1891
	500.000			0.09923

end

begin	Lanthanum		La	57	138.9		 6.145

	  1.000		 9087.
	  1.060		 7988.
	  1.123		 7000.

	  1.123		 8025.
	  1.163		 7447.
	  1.204		 6911.

	  1.204		 7321.
	  1.280		 6440.
	  1.361		 5652.

	  1.361		 5905.
	  1.500		 4772.
	  2.000		 2464.
	  3.000		  926.7
	  5.000		  257.8
	  5.483		  203.9

	  5.483		  576.4
	  5.683		  530.2
	  5.891		  484.6

	  5.891		  654.5
	  6.000		  631.9
	  6.266		  565.4

	  6.266		  651.8
	 10.000		  196.7
	 15.000		   67.31
	 20.000		   31.19
	 30.000		   10.52
	 38.925		    5.271

	 38.925		   27.72
	 50.000		   14.47
	100.000			2.315
	150.000			0.8239
	200.000			0.4239
	300.000			0.1961
	500.000			0.1015

end

begin	Cerium			Ce	58	140.1		 8.240

	  1.000		 9711.
	  1.089		 7991.
	  1.185		 6563.

	  1.185		 7545.
	  1.228		 6984.
	  1.273		 6465.

	  1.273		 6853.
	  1.352		 6031.
	  1.437		 5293.

	  1.437		 5532.
	  1.500		 5033.
	  2.000		 2607.
	  3.000		  985.7
	  5.000		  274.0
	  5.723		  194.3

	  5.723		  545.4
	  6.000		  490.8
	  6.164		  455.4

	  6.164		  618.8
	  6.354		  575.6
	  6.549		  533.2

	  6.549		  614.9
	 10.000		  208.2
	 15.000		   71.43
	 20.000		   33.12
	 30.000		   11.19
	 40.443			5.066

	 40.443		   26.35
	 60.000		    9.447
	100.000			2.445
	150.000			0.8687
	200.000			0.4452
	300.000			0.2039
	500.000			0.1041

end

begin	Praseodymium	Pr	59	140.9		 6.773

	  1.000		10580.
	  1.115		 8122.
	  1.242		 6278.

	  1.242		 7224.
	  1.289		 6661.
	  1.337		 6142.

	  1.377		 6513.
	  1.500		 5090.
	  1.511		 5006.

	  1.511		 5235.
	  2.000		 2768.
	  3.000		 1047.
	  5.000		  292.4
	  5.964		  186.8

	  5.964		  521.4
	  6.000		  514.5
	  6.440		  431.0

	  6.440		  585.7
	  6.635		  545.5
	  6.835		  506.0

	  6.835		  583.6
	 10.000		  220.9
	 15.000		   75.97
	 20.000		   35.26
	 30.000		   11.92
	 41.991			4.892

	 41.991		   25.18
	 60.000		    9.977
	100.000			2.588
	150.000			0.9180
	200.000			0.4687
	300.000			0.2126
	500.000			0.1071

end

begin	Neodymium		Nd	60	144.2		 7.007

	  1.000		 6627.
	  1.003		 6806.
	  1.005		 6949.

	  1.005		 8554.
	  1.142		 7579.
	  1.297		 5933.

	  1.297		 6833.
	  1.349		 6264.
	  1.403		 5744.

	  1.403		 6093.
	  1.500		 5273.
	  1.575		 4738.

	  1.575		 4951.
	  2.000		 2878.
	  3.000		 1093.
	  5.000		  306.1
	  6.208		  176.7

	  6.208		  489.2
	  6.460		  448.7
	  6.722		  401.3

	  6.722		  545.6
	  6.921		  513.5
	  7.126		  472.3

	  7.126		  544.8
	 10.000		  230.0
	 15.000		   79.25
	 20.000		   36.84
	 30.000		   12.47
	 43.569			4.642

	 43.569		   23.66
	 60.000		   10.33
	100.000			2.687
	150.000			0.9522
	200.000			0.4844
	300.000			0.2178
	500.000			0.1083

end

begin	Promethium		Pm	61	144.9		 7.220

	  1.000		 2056.
	  1.013		 2007.
	  1.027		 1959.

	  1.027		 2729.
	  1.039		 3894.
	  1.052		 5830.

	  1.052		 7242.
	  1.194		 7232.
	  1.357		 5687.

	  1.357		 6555.
	  1.413		 5985.
	  1.471		 5466.

	  1.471		 5799.
	  1.500		 5553.
	  1.653		 4497.

	  1.653		 4699.
	  2.000		 3048.
	  3.000		 1162.
	  5.000		  326.0
	  6.459		  170.2

	  6.459		  467.8
	  6.730		  422.6
	  7.013		  380.5

	  7.013		  517.4
	  7.217		  488.4
	  7.428		  449.4

	  7.428		  518.4
	 10.000		  244.0
	 15.000		   84.11
	 20.000		   39.16
	 30.000		   13.27
	 45.184			4.491

	 45.184		   22.65
	 60.000		   10.87
	100.000			2.840
	150.000			1.005
	200.000			0.5098
	300.000			0.2273
	500.000			0.1115

end

begin	Samarium		Sm	62	150.4		 7.520

	  1.000		 2107.
	  1.039		 1963.
	  1.080		 1827.

	  1.080		 2635.
	  1.093		 3837.
	  1.106		 5613.

	  1.106		 6852.
	  1.253		 6641.
	  1.420		 5262.

	  1.420		 6072.
	  1.500		 5358.
	  1.541		 5046.

	  1.541		 5355.
	  1.629		 4740.
	  1.723		 4189.

	  2.000		 3120.
	  3.000		 1193.
	  5.000		  335.6
	  6.716		  158.7

	  6.716		  433.4
	  7.008		  389.8
	  7.312		  349.6

	  7.312		  475.6
	  7.521		  450.1
	  7.737		  414.1

	  7.737		  477.7
	 10.000		  249.9
	 15.000		   86.33
	 20.000		   40.25
	 30.000		   13.65
	 46.834			4.208

	 46.834		   21.00
	 60.000		   11.07
	100.000			2.901
	150.000			1.027
	200.000			0.5192
	300.000			0.2296
	500.000			0.1112

end

begin	Europium		Eu	63	152.0		 5.243

	  1.000		 2216.
	  1.063		 1978.
	  1.131		 1763.

	  1.131		 2443.
	  1.146		 3617.
	  1.161		 5416.

	  1.161		 6540.
	  1.311		 6291.
	  1.481		 5031.

	  1.481		 5810.
	  1.500		 5624.
	  1.614		 4771.

	  1.614		 5064.
	  1.704		 4492.
	  1.800		 3980.

	  1.800		 4158.
	  2.000		 3278.
	  3.000		 1256.
	  5.000		  354.2
	  6.977		  152.2

	  6.977		  412.7
	  7.290		  369.6
	  7.617		  330.2

	  7.617		  449.2
	  8.000		  398.9
	  8.052		  392.1

	  8.052		  452.4
	 10.000		  262.9
	 15.000		   90.87
	 20.000		   42.42
	 30.000		   14.41
	 48.519			4.051

	 48.519		   20.01
	 60.000		   11.55
	100.000			3.040
	150.000			1.076
	200.000			0.5425
	300.000			0.2380
	500.000			0.1139

end

begin	Gadolinium		Gd	64	157.3		 7.900

	  1.000		 2291.
	  1.089		 1960.
	  1.185		 1668.

	  1.185		 1931.
	  1.201		 2527.
	  1.217		 3961.

	  1.217		 4764.
	  1.500		 5041.
	  1.544		 4701.

	  1.544		 5432.
	  1.615		 4900.
	  1.688		 4421.

	  1.688		 4694.
	  1.782		 4164.
	  1.881		 3691.

	  1.881		 3854.
	  2.000		 3360.
	  3.000		 1292.
	  5.000		  365.3
	  7.243		  142.9

	  7.243		  384.4
	  7.579		  342.7
	  7.930		  304.9

	  7.930		  414.9
	  8.000		  406.8
	  8.376		  363.1

	  8.376		  419.0
	 10.000		  269.3
	 15.000		   93.35
	 20.000		   43.63
	 30.000		   14.84
	 50.239			3.812

	 50.239		   18.64
	 60.000		   11.75
	100.000			3.109
	150.000			1.100
	200.000			0.5534
	300.000			0.2410
	500.000			0.1139

end

begin	Terbium			Tb	65	158.9		 8.229

	  1.000		 2386.
	  1.114		 1956.
	  1.241		 1591.

	  1.241		 2337.
	  1.258		 3515.
	  1.275		 5023.

	  1.275		 5928.
	  1.500		 5314.
	  1.611		 4464.

	  1.611		 5164.
	  1.688		 4635.
	  1.768		 4166.

	  1.768		 4424.
	  1.865		 3929.
	  1.967		 3482.

	  1.967		 3638.
	  2.000		 3507.
	  3.000		 1354.
	  5.000		  383.8
	  7.514		  136.8

	  7.514		  365.8
	  8.000		  313.3
	  8.252		  288.1

	  8.252		  392.5
	  8.477		  368.4
	  8.708		  344.1

	  8.708		  397.0
	 10.000		  281.5
	 15.000		   98.02
	 20.000		   45.88
	 30.000		   15.63
	 51.996			3.672

	 51.996		   17.77
	 80.000			5.826
	100.000			3.253
	150.000			1.151
	200.000			0.5775
	300.000			0.2498
	500.000			0.1167

end
	  
begin	Dysprosium		Dy	66	162.5		 8.550

	  1.000		 2494.
	  1.138		 1953.
	  1.295		 1521.

	  1.295		 2173.
	  1.314		 3293.
	  1.333		 4745.

	  1.333		 5551.
	  1.500		 5550.
	  1.676		 4229.

	  1.676		 4896.
	  1.757		 4382.
	  1.842		 3924.

	  1.842		 4168.
	  2.000		 3467.
	  2.047		 3286.

	  2.047		 3433.
	  3.000		 1405.
	  5.000		  398.8
	  7.790		  129.9

	  7.790		  343.7
	  8.000		  326.9
	  8.581		  269.5

	  8.581		  367.2
	  8.810		  345.2
	  9.046		  322.8

	  9.046		  372.5
	 10.000		  290.2
	 15.000		  101.6
	 20.000		   47.65
	 30.000		   16.25
	 53.788			3.500

	 53.788		   16.76
	 80.000			6.012
	100.000			3.360
	150.000			1.189
	200.000			0.5953
	300.000			0.2558
	500.000			0.1181

end

begin	Holmium			Ho	67	164.9		 8.795

	  1.000		 2616.
	  1.163		 1961.
	  1.351		 1462.

	  1.351		 2108.
	  1.371		 3193.
	  1.391		 4528.

	  1.391		 5239.
	  1.500		 5847.
	  1.741		 4038.

	  1.741		 4677.
	  1.830		 4161.
	  1.923		 3703.

	  1.923		 3934.
	  2.000		 3590.
	  2.128		 3127.

	  2.128		 3266.
	  3.000		 1465.
	  5.000		  417.0
	  8.071		  124.2

	  8.071		  328.3
	  8.484		  288.9
	  8.918		  254.0

	  8.918		  346.3
	  9.153		  325.9
	  9.394		  305.1

	  9.394		  352.0
	 10.000		  301.2
	 15.000		  106.0
	 20.000		   49.80
	 30.000		   17.01
	 50.000			4.425
	 55.618			3.361

	 55.618		   15.92
	 80.000			6.244
	100.000			3.492
	150.000			1.236
	200.000			0.6178
	300.000			0.2639
	500.000			0.1205

end

begin	Erbium			Er	68	167.3		 9.066

	  1.000		 2748.
	  1.187		 1978.
	  1.409		 1408.

	  1.409		 2069.
	  1.431		 3170.
	  1.453		 4339.

	  1.453		 4952.
	  1.500		 6069.
	  1.812		 3841.

	  1.812		 4452.
	  2.000		 3523.
	  2.006		 3499.

	  2.006		 3717.
	  2.104		 3337.
	  2.207		 2995.

	  2.207		 3127.
	  3.000		 1526.
	  5.000		  435.9
	  8.358		  119.0

	  8.358		  312.6
	  8.799		  279.9
	  9.264		  239.7

	  9.264		  327.1
	  9.505		  308.0
	  9.751		  288.6

	  9.751		  333.0
	 10.000		  312.9
	 15.000		  110.6
	 20.000		   52.04
	 30.000		   17.80
	 50.000			4.634
	 57.486			3.232

	 57.486		   15.14
	 80.000			6.478
	100.000			3.628
	150.000			1.285
	200.000			0.6415
	300.000			0.2724
	500.000			0.1230

end

begin	Thulium			Tm	69	168.9		 9.321

	  1.000		 2899.
	  1.211		 1995.
	  1.468		 1362.

	  1.468		 1919.
	  1.500		 3937.
	  1.515		 4145.

	  1.515		 4830.
	  1.689		 4446.
	  1.885		 3668.

	  1.885		 4254.
	  2.000		 3686.
	  2.090		 3326.

	  2.090		 3534.
	  2.196		 3160.
	  2.307		 2821.

	  2.307		 2945.
	  3.000		 1594.
	  5.000		  456.9
	  8.648		  114.6

	  8.648		  299.1
	  9.120		  260.9
	  9.617		  227.4

	  9.617		  310.1
	 10.000		  283.0
	 10.116		  274.5

	 10.116		  316.7
	 15.000		  115.7
	 20.000		   54.53
	 30.000		   18.68
	 50.000			4.867
	 59.390			3.122

	 59.390		   12.00
	 80.000			6.741
	100.000			3.780
	150.000			1.340
	200.000			0.6682
	300.000			0.2822
	500.000			0.1261

end

begin	Ytterbium		Yb	70	173.0		 6.965

	  1.000		 3017.
	  1.500		 1350.
	  1.528		 1300.

	  1.528		 1965.
	  1.552		 2949.
	  1.576		 3908.

	  1.576		 4540.
	  1.753		 4200.
	  1.950		 3495.

	  1.950		 4054.
	  2.000		 3797.
	  2.173		 3128.

	  2.173		 3323.
	  2.283		 2970.
	  2.398		 2652.

	  2.398		 2769.
	  3.000		 1640.
	  5.000		  471.7
	  8.944		  108.8

	  8.944		  282.4
	  9.447		  251.1
	  9.978		  212.8

	  9.978		  290.6
	 10.000		  289.3
	 10.486		  257.7

	 10.486		  297.3
	 15.000		  119.3
	 20.000		   56.28
	 30.000		   19.32
	 50.000			5.038
	 61.332			2.975
	 61.332		   13.65
	 80.000			6.909
	100.000			3.881
	150.000			1.378
	200.000			0.6860
	300.000			0.2882
	500.000			0.1274

end

begin	Lutetium		Lu	71	175.0		 9.840

	  1.000		 3187.
	  1.500		 1424.
	  1.588		 1264.

	  1.588		 1597.
	  1.614		 2302.
	  1.639		 3442.

	  1.639		 3935.
	  2.000		 3452.
	  2.024		 3352.

	  2.024		 3890.
	  2.140		 3397.
	  2.263		 2969.

	  2.263		 3155.
	  2.375		 2826.
	  2.491		 2531.

	  2.491		 2640.
	  3.000		 1710.
	  5.000		  493.4
	  9.244		  104.9

	  9.244		  270.3
	 10.000		  221.1
	 10.349		  201.9

	 10.349		  275.7
	 10.606		  267.6
	 10.870		  245.0

	 10.870		  282.6
	 15.000		  124.7
	 20.000		   58.81
	 30.000		   20.23
	 50.000			5.279
	 63.314			2.874

	 63.314		   13.05
	 80.000			7.161
	100.000			4.033
	150.000			1.433
	200.000			0.7130
	300.000			0.2981
	500.000			0.1305

end

begin	Hafnium			Hf	72	178.5		13.31

	  1.000		 3335.
	  1.500		 1489.
	  1.662		 1203.

	  1.662		 1505.
	  1.689		 2189.
	  1.716		 3273.

	  1.716		 3682.
	  2.000		 3598.
	  2.108		 3152.

	  2.108		 3659.
	  2.233		 3182.
	  2.365		 2769.

	  2.365		 2943.
	  2.480		 2637.
	  2.601		 2363.

	  2.601		 2465.
	  3.000		 1768.
	  5.000		  511.3
	  9.561		   99.97

	  9.561		  255.7
	 10.000		  230.1
	 10.739		  189.4

	 10.739		  258.9
	 11.002		  252.2
	 11.271		  230.6

	 11.271		  265.9
	 15.000		  129.0
	 20.000		   60.87
	 30.000		   20.98
	 50.000			5.478
	 65.351			2.751

	 65.351		   12.37
	 80.000			7.352
	100.000			4.154
	150.000			1.477
	200.000			0.7339
	300.000			0.3054
	500.000			0.1324

end

begin	Tantalum		Ta	73	180.9		16.65

	  1.000		 3510.
	  1.500		 1566.
	  1.735		 1154.

	  1.735		 1417.
	  1.764		 2053.
	  1.793		 3082.

	  1.793		 3421.
	  2.000		 3771.
	  2.194		 2985.

	  2.194		 3464.
	  2.327		 3003.
	  2.469		 2604.

	  2.469		 2768.
	  2.586		 2486.
	  2.708		 2233.

	  2.708		 2329.
	  3.000		 1838.
	  5.000		  532.8
	  9.881		   95.99

	  9.881		  244.3
	 10.000		  237.9
	 11.136		  179.1

	 11.136		  244.9
	 11.406		  239.3
	 11.682		  218.2

	 11.682		  251.8
	 15.000		  134.0
	 20.000		   63.34
	 30.000		   21.87
	 50.000		    5.717
	 67.416		    2.652

	 67.416		   11.80
	 80.000		    7.587
	100.000		    4.302
	150.000			1.531
	200.000			0.7598
	300.000			0.3149
	500.000			0.1352

end

begin	Tungsten		W	74	183.8		19.30

	  1.000		 3683.
	  1.500		 1643.
	  1.809		 1108.

	  1.809		 1327.
	  1.840		 1911.
	  1.872		 2901.

	  1.872		 3170.
	  2.000		 3922.
	  2.281		 2828.

	  2.281		 3279.
	  2.424		 2833.
	  2.575		 2445.

	  2.575		 2599.
	  2.694		 2339.
	  2.820		 2104.

	  2.820		 2194.
	  3.000		 1902.
	  5.000		  553.4
	 10.000		   96.91
	 10.207		   92.01

	 10.207		  233.4
	 10.855		  198.3
	 11.544		  168.9

	 11.544		  231.2
	 11.819		  226.8
	 12.100		  206.5

	 12.100		  238.2
	 15.000		  138.9
	 20.000		   65.73
	 30.000		   22.73
	 50.000		    5.949
	 69.525		    2.552

	 69.525		   11.23
	 80.000		    7.810
	100.000		    4.438
	150.000			1.581
	200.000			0.7844
	300.000			0.3238
	500.000			0.1378

end

begin	Rhenium			Re	75	186.2		21.02

	  1.000		 3872.
	  1.500		 1729.
	  1.822		 1147.

	  1.822		 1152.
	  1.885		 1251.
	  1.949		 2689.

	  1.949		 3802.
	  2.000		 3773.
	  2.367		 2696.

	  2.367		 3124.
	  2.520		 2686.
	  2.682		 2309.

	  2.682		 2454.
	  2.804		 2210.
	  2.932		 1992.

	  2.932		 2078.
	  3.000		 1972.
	  5.000		  575.9
	 10.000		  101.1
	 10.535		   88.58

	 10.535		  223.4
	 11.225		  196.4
	 11.959		  160.0

	 11.959		  219.1
	 12.239		  207.9
	 12.527		  196.1

	 12.527		  226.2
	 15.000		  144.0
	 20.000		   68.35
	 30.000		   23.67
	 50.000		    6.206
	 71.676		    2.464

	 71.676		   10.73
	 80.000		    8.069
	100.000		    4.587
	150.000			1.637
	200.000			0.8119
	300.000			0.3339
	500.000			0.1409

end

begin	Osmium			Os	76	190.2		22.57

	  1.000		 4032.
	  1.500		 1801.
	  1.960		 1023.

	  1.960		 2003.
	  2.000		 2218.
	  2.031		 2622.

	  2.031		 2864.
	  2.234		 2852.
	  2.457		 2546.

	  2.457		 2948.
	  2.619		 2524.
	  2.792		 2161.

	  2.792		 2296.
	  3.000		 1938.
	  3.049		 1869.

	  3.049		 1949.
	  4.000		 1023.
	  5.000		  593.6
	 10.000		  104.5
	 10.871		   84.58

	 10.871		  212.1
	 11.603		  186.0
	 12.385		  150.3

	 12.385		  206.0
	 12.673		  195.6
	 12.968		  184.6

	 12.968		  212.9
	 15.000		  147.8
	 20.000		   70.39
	 30.000		   24.43
	 50.000		    6.414
	 73.871		    2.360

	 73.871		   10.16
	 80.000		    8.290
	100.000		    4.696
	150.000			1.680
	200.000			0.8327
	300.000			0.3414
	500.000			0.1428

end

begin	Iridium			Ir	77	192.2		22.42

	  1.000		 4243.
	  1.500		 1898.
	  2.040		  988.2

	  2.040		 1066.
	  2.078		 1492.
	  2.116		 2478.

	  2.116		 2608.
	  2.323		 2621.
	  2.551		 2424.

	  2.551		 2800.
	  2.724		 2393.
	  2.909		 2041.

	  2.909		 2166.
	  3.000		 2011.
	  3.174		 1767.

	  3.174		 1843.
	  4.000		 1063.
	  5.000		  617.8
	 10.000		  109.0
	 11.215		   81.55

	 11.215		  203.8
	 11.993		  170.2
	 12.824		  142.6

	 12.824		  195.9
	 13.118		  193.3
	 13.419		  175.6

	 13.419		  202.5
	 15.000		  153.0
	 20.000		   73.17
	 30.000		   25.46
	 50.000		    6.693
	 76.111		    2.284

	 76.111		    9.728
	 80.000		    8.585
	100.000		    4.855
	150.000			1.740
	200.000			0.8628
	300.000			0.3525
	500.000			0.1463

end

begin	Platinum		Pt	78	195.1		21.45

	  1.000		 4433.
	  1.500		 1986.
	  2.000		 1081.
	  2.122		  950.0

	  2.122		 1034.
	  2.161		 1431.
	  2.202		 2341.

	  2.202		 2487.
	  2.414		 2512.
	  2.645		 2307.

	  2.645		 2663.
	  3.000		 1965.
	  3.026		 1923.

	  3.026		 2041.
	  3.158		 1844.
	  3.296		 1671.

	  3.296		 1742.
	  4.000		 1100.
	  5.000		  640.2
	 10.000		  113.2
	 11.564		   78.44

	 11.564		  194.6
	 12.389		  161.8
	 13.273		  134.9

	 13.273		  185.3
	 13.573		  184.8
	 13.880		  166.6

	 13.880		  192.1
	 15.000		  157.8
	 20.000		   75.74
	 30.000		   26.41
	 50.000		    6.954
	 78.395		    2.203

	 78.395		    9.301
	 80.000		    8.731
	100.000		    4.993
	150.000			1.795
	200.000			0.8896
	300.000			0.3625
	500.000			0.1492

end

begin	Gold			Au	79	197.0		19.32

	  1.000		 4652.
	  1.500		 2089.
	  2.000		 1137.
	  2.206		  918.7

	  2.206		  997.1
	  2.248		 1386.
	  2.291		 2258.

	  2.291		 2389.
	  2.507		 2380.
	  2.743		 2203.

	  2.743		 2541.
	  3.000		 2049.
	  3.148		 1822.

	  3.148		 1933.
	  3.283		 1748.
	  3.425		 1585.

	  3.425		 1652.
	  4.000		 1144.
	  5.000		  666.1
	 10.000		  118.1
	 11.919		   75.82

	 11.919		  187.0
	 12.794		  154.6
	 13.734		  128.3

	 13.734		  176.4
	 14.040		  176.6
	 14.353		  158.8

	 14.353		  183.0
	 15.000		  163.7
	 20.000		   78.83
	 30.000		   27.52
	 50.000		    7.256
	 80.000		    2.185
	 80.725		    2.137

	 80.725		    8.904
	100.000		    5.158
	150.000			1.860
	200.000			0.9214
	300.000			0.3744
	500.000			0.1530

end

begin	Mercury			Hg	80	200.6		13.55

	  1.000		 4830.
	  1.500		 2174.
	  2.000		 1184.
	  2.295		  877.3

	  2.295		  992.5
	  2.339		 1407.
	  2.385		 2151.

	  2.385		 2316.
	  2.606		 2257.
	  2.847		 2080.

	  2.847		 2400.
	  3.000		 2117.
	  3.278		 1704.

	  3.278		 1808.
	  3.417		 1638.
	  3.562		 1486.

	  3.562		 1649.
	  4.000		 1179.
	  5.000		  686.9
	 10.000		  122.1
	 12.284		   72.66

	 12.284		  178.0
	 13.211		  146.4
	 14.209		  120.9

	 14.209		  166.3
	 14.521		  167.4
	 14.839		  150.1

	 14.839		  172.8
	 15.000		  168.1
	 20.000		   81.23
	 30.000		   28.41
	 50.000		    7.504
	 80.000		    2.259
	 83.102		    2.055

	 83.102		    8.464
	100.000		    5.279
	150.000			1.909
	200.000			0.9456
	300.000			0.3834
	500.000			0.1555

end

begin	Thallium		Tl	81	204.4		11.72

	  1.000		 5008.
	  1.500		 2259.
	  2.000		 1231.
	  2.389		  835.2

	  2.389		 1136.
	  2.437		 1582.
	  2.485		 2049.

	  2.485		 2364.
	  2.711		 2207.
	  2.957		 1958.

	  2.957		 2267.
	  3.000		 2188.
	  3.416		 1591.

	  3.416		 1687.
	  3.557		 1530.
	  3.704		 1392.

	  3.704		 1452.
	  4.000		 1212.
	  5.000		  706.8
	 10.000		  126.0
	 12.658		   69.57

	 12.658		  169.3
	 13.640		  147.3
	 14.698		  113.9

	 14.698		  157.2
	 15.000		  149.7
	 15.347		  141.6

	 15.347		  163.2
	 20.000		   83.61
	 30.000		   29.29
	 50.000		    7.751
	 80.000		    2.332
	 85.530		    1.976

	 85.530		    8.046
	100.000		    5.398
	150.000			1.957
	200.000			0.9696
	300.000			0.3923
	500.000			0.1580

end

begin	Lead			Pb	82	207.2		11.35

	  1.000		 5210.
	  1.500		 2356.
	  2.000		 1285.
	  2.484		  800.6

	  2.484		 1397.
	  2.534		 1726.
	  2.586		 1944.

	  2.586		 2458.
	  3.000		 1965.
	  3.066		 1857.

	  3.066		 2146.
	  3.301		 1796.
	  3.554		 1496.

	  3.554		 1585.
	  3.699		 1442.
	  3.851		 1311.

	  3.851		 1368.
	  4.000		 1251.
	  5.000		  730.4
	 10.000		  130.6
	 13.035		   67.01

	 13.035		  162.1
	 15.000		  111.6
	 15.200		  107.8

	 15.200		  148.5
	 15.527		  141.6
	 15.861		  134.4

	 15.861		  154.8
	 20.000		   86.36
	 30.000		   30.32
	 50.000		    8.041
	 80.000		    2.419
	 88.005		    1.910

	 88.005		    7.683
	100.000		    5.549
	150.000			2.014
	200.000			0.9985
	300.000			0.4031
	500.000			0.1614

end

begin	Bismuth			Bi	83	209.0		 9.747

	  1.000		 5441.
	  1.500		 2468.
	  2.000		 1348.
	  2.580		  772.4

	  2.580		 1777.
	  2.633		 1850.
	  2.688		 1852.

	  2.688		 2576.
	  3.000		 2053.
	  3.177		 1774.

	  3.177		 2048.
	  3.427		 1707.
	  3.696		 1415.

	  3.696		 1498.
	  3.845		 1366.
	  3.999		 1243.

	  3.999		 1297.
	  5.000		  758.0
	 10.000		  136.0
	 13.419		   64.91

	 13.419		  156.0
	 15.000		  116.0
	 15.711		  102.7

	 15.711		  141.6
	 16.046		  135.1
	 16.388		  128.2

	 16.388		  147.8
	 20.000		   89.52
	 30.000		   31.52
	 50.000		    8.379
	 80.000		    2.522
	 90.526		    1.856

	 90.526		    7.380
	100.000		    5.739
	150.000			2.082
	200.000			1.033
	300.000			0.4163
	500.000			0.1656

end

begin	Polonium		Po	84	209.0		 9.320	

	  1.000		 5724.
	  1.500		 2604.
	  2.000		 1423.
	  2.683		  748.2

	  2.683		 2206.
	  2.740		 1941.
	  2.798		 1775.

	  2.798		 2711.
	  3.000		 2155.
	  3.302		 1693.

	  3.302		 1956.
	  3.567		 1622.
	  3.854		 1339.

	  3.854		 1419.
	  4.000		 1299.
	  4.149		 1190.

	  4.149		 1242.
	  5.000		  793.1
	 10.000		  142.7
	 13.814		   63.37

	 13.814		  151.3
	 15.000		  121.9
	 16.244		   98.49

	 16.244		  136.1
	 16.588		  129.7
	 16.939		  123.2

	 16.939		  142.0
	 20.000		   93.52
	 30.000		   33.03
	 50.000			8.802
	 80.000			2.649
	 93.105			1.82

	 93.105			7.140
	100.000			5.991
	150.000			2.170
	200.000			1.078
	300.000			0.4335
	500.000			0.1714

end

begin	Astatine		At	85	210.0		10.000

	  1.000		 5868.
	  1.021		 5651.
	  1.042		 5435.

	  1.042		 5551.
	  1.500		 2731.
	  2.000		 1495.
	  2.787		  722.5

	  2.787		 2431.
	  2.847		 1928.
	  2.909		 1686.

	  2.909		 2763.
	  3.000		 2250.
	  3.426		 1614.

	  3.426		 1866.
	  4.000		 1275.
	  4.008		 1269.

	  4.008		 1345.
	  4.160		 1234.
	  4.317		 1126.

	  4.317		 1175.
	  5.000		  825.1
	 10.000		  149.0
	 14.214		   61.62

	 14.214		  146.1
	 15.000		  127.9
	 16.785		   94.17

	 16.785		  130.2
	 17.135		  133.8
	 17.493		  118.1

	 17.493		  136.0
	 20.000		   97.04
	 30.000		   34.42
	 50.000			9.196
	 80.000			2.769
	 95.730			1.777

	 95.730			6.895
	100.000			6.174
	150.000			2.249
	200.000			1.118
	300.000			0.4491
	500.000			0.1765

end

begin	Radon			Rn	86	222.0		 0.00973

	  1.000		 5826.
	  1.047		 5354.
	  1.097		 4909.

	  1.097		 5013.
	  1.500		 2719.
	  2.000		 1490.
	  2.892		  663.4

	  2.892		 2319.
	  3.000		 1554.
	  3.021		 1524.

	  3.021		 2470.
	  3.270		 1867.
	  3.538		 1479.

	  3.538		 1710.
	  4.000		 1266.
	  4.159		 1148.

	  4.159		 1217.
	  4.317		 1112.
	  4.482		 1017.

	  4.482		 1061.
	  5.000		  816.3
	 10.000		  147.7
	 14.619		   56.97

	 14.619		  134.4
	 15.000		  125.9
	 17.337		   85.57

	 17.337		  118.5
	 17.689		  122.5
	 18.049		  107.7

	 18.049		  124.1
	 20.000		   95.63
	 30.000		   34.08
	 50.000			9.125
	 80.000			2.749
	 98.404			1.649

	 98.404			6.371
	100.000			6.086
	150.000			2.215
	200.000			1.101
	300.000			0.4420
	500.000			0.1728

end

begin	Francium		Fr	87	223.0		10.000

	  1.000		 6238.
	  1.074		 5356.
	  1.153		 4673.

	  1.153		 4772.
	  1.500		 2846.
	  2.000		 1562.
	  2.999		  641.4

	  2.999		 1995.
	  3.000		 1994.
	  3.136		 1449.

	  3.136		 2255.
	  3.389		 1761.
	  3.663		 1415.

	  3.663		 1641.
	  4.000		 1322.
	  4.327		 1086.

	  4.327		 1153.
	  4.487		 1059.
	  4.652		  966.6

	  4.652		 1008.
	  5.000		  848.9
	 10.000		  153.9
	 15.031		   55.44

	 15.031		  130.4
	 16.406		  103.1
	 17.906		   81.84

	 17.906		  113.7
	 18.269		  117.9
	 18.639		  103.1

	 18.639		  118.7
	 20.000		   99.33
	 30.000		   35.50
	 50.000			9.525
	 80.000			2.871
	100.000			1.655
	101.137			1.610

	101.137			6.089
	150.000			2.295
	200.000			1.141
	300.000			0.4577
	500.000			0.1780

end

begin	Radium			Ra	88	226.0		 5.000

	  1.000		 6201.
	  1.028		 5895.
	  1.058		 5602.

	  1.058		 5683.
	  1.130		 5019.
	  1.208		 4424.

	  1.208		 4516.
	  1.500		 2950.
	  2.000		 1620.
	  3.000		  666.4
	  3.105		  616.9

	  3.105		 1715.
	  3.176		 1506.
	  3.248		 1374.

	  3.248		 2039.
	  3.510		 1647.
	  3.792		 1342.

	  3.792		 1558.
	  4.000		 1367.
	  4.489		 1024.

	  4.489		 1086.
	  4.653		  999.5
	  4.822		  912.9

	  4.822		  952.2
	  5.000		  874.1
	 10.000		  158.9
	 15.000		   57.60
	 15.444		   53.55

	 15.444		  125.3
	 16.896		   98.39
	 18.484		   77.66

	 18.484		  108.1
	 18.857		  112.6
	 19.237		   97.99

	 19.237		  112.8
	 20.000		  102.3
	 30.000		   36.64
	 50.000		    9.850
	 80.000			2.971
	100.000			1.712
	103.922			1.560

	103.922			5.826
	150.000			2.355
	200.000			1.172
	300.000			0.4696
	500.000			0.1817

end

begin	Actinium		Ac	89	227.1		10.06

	  1.000		 6469.
	  1.039		 6034.
	  1.080		 5622.

	  1.080		 5702.
	  1.171		 4905.
	  1.269		 4203.

	  1.269		 4289.
	  1.500		 3082.
	  2.000		 1696.
	  3.000		  698.1
	  3.219		  595.9

	  3.219		 1537.
	  3.294		 1404.
	  3.370		 1307.

	  3.370		 1892.
	  3.630		 1564.
	  3.909		 1296.

	  3.909		 1504.
	  4.000		 1426.
	  4.656		  974.5

	  4.656		 1034.
	  5.000		  868.7
	  5.002		  867.8

	  5.002		  905.1
	  6.000		  582.9
	 10.000		  165.3
	 15.000		   60.02
	 15.871		   52.13

	 15.871		  121.4
	 17.403		  104.2
	 19.083		   74.26

	 19.083		  103.6
	 19.458		  107.9
	 19.840		   94.03

	 19.840		  108.2
	 20.000		  106.2
	 30.000		   38.11
	 50.000		   10.27
	 80.000			3.100
	100.000			1.786
	106.756			1.525

	106.756			5.622
	150.000			2.434
	200.000			1.213
	300.000			0.4859
	500.000			0.1872

end

begin	Thorium			Th	90	232.0		11.72

	  1.000		 6614.
	  1.081		 5747.
	  1.168		 4976.

	  1.168		 5048.
	  1.246		 4463.
	  1.330		 3937.

	  1.330		 4017.
	  1.500		 3161.
	  2.000		 1742.
	  3.000		  718.0
	  3.332		  567.1

	  3.332		 1394.
	  3.410		 1304.
	  3.491		 1226.

	  3.491		 1749.
	  4.000		 1253.
	  4.046		 1217.

	  4.046		 1415.
	  4.421		 1137.
	  4.830		  910.3

	  4.830		  965.5
	  5.000		  887.8
	  5.182		  812.9

	  5.182		  847.7
	  6.000		  594.5
	 10.000		  168.9
	 15.000		   61.41
	 16.300		   49.91

	 16.300		  115.6
	 17.917		   99.24
	 19.693		   69.84

	 19.693		   95.27
	 20.000		   93.68
	 20.472		   88.51

	 20.472		  101.8
	 30.000		   38.92
	 50.000		   10.52
	 80.000			3.178
	100.000			1.830
	109.651			1.465

	109.651			5.336
	150.000			2.472
	200.000			1.234
	300.000			0.4939
	500.000			0.1895

end

begin	Protactinium	Pa	91	231.0		15.370

	  1.000		 6530.
	  1.003		 6490.
	  1.007		 6451.

	  1.007		 6868.
	  1.110		 5755.
	  1.224		 4794.

	  1.224		 4863.
	  1.303		 4311.
	  1.387		 3815.

	  1.387		 3891.
	  1.500		 3327.
	  2.000		 1834.
	  3.000		  755.8
	  3.442		  554.8

	  3.442		 1363.
	  3.525		 1266.
	  3.611		 1185.

	  3.611		 1695.
	  4.000		 1315.
	  4.174		 1182.

	  4.174		 1374.
	  5.000		  875.9
	  5.001		  875.5

	  5.001		  928.8
	  5.181		  851.4
	  5.367		  781.0

	  5.367		  814.4
	  6.000		  621.7
	 10.000		  176.9
	 15.000		   64.42
	 16.733		   49.03

	 16.733		  113.0
	 20.000		   70.25
	 20.313		   67.47

	 20.313		   94.52
	 20.705		   89.95
	 21.105		   85.76

	 21.105		   98.61
	 30.000		   40.77
	 50.000		   11.05
	 80.000			3.342
	100.000			1.924
	112.601			1.445

	112.601			5.198
	150.000			2.575
	200.000			1.288
	300.000			0.5152
	500.000			0.1969

end

begin	Uranium			U	92	238.0		18.95

	  1.000		 6626.
	  1.022		 6375.
	  1.044		 6127.

	  1.044		 6519.
	  1.153		 5446.
	  1.273		 4526.

	  1.273		 4589.
	  1.354		 4065.
	  1.441		 3598.

	  1.441		 3668.
	  1.500		 3382.
	  2.000		 1865.
	  3.000		  769.2
	  3.552		  525.7

	  3.552		 1266.
	  3.639		 1188.
	  3.728		 1112.

	  3.728		 1582.
	  4.000		 1329.
	  4.303		 1110.

	  4.303		 1292.
	  5.000		  889.1
	  5.182		  811.8

	  5.182		  861.1
	  5.362		  791.5
	  5.548		  728.2

	  5.548		  759.2
	  6.000		  628.4
	 10.000		  179.1
	 15.000		   65.28
	 17.166		   46.63

	 17.166		  107.0
	 20.000		   71.06
	 20.948		   63.00

	 20.948		   88.38
	 21.349		   92.21
	 21.757		   80.23

	 21.757		   92.22
	 30.000		   41.28
	 50.000		   11.21
	 80.000			3.395
	100.000			1.954
	115.606			1.378

	115.606			4.893
	150.000			2.591
	200.000			1.298
	300.000			0.5192
	500.000			0.1976

end