CALC_ID v. 1.00a
Mon Oct 28 12:01:07 2013
Beff estimated from interpolated measured undulator effective magnetic fields.
Units are in Gauss and mm.

 Gap                 8.00        8.25        8.50        8.75        9.00        9.25        9.50        9.75       10.00       10.25       10.50       10.75       11.00       11.25       11.50       11.75       12.00       12.25       12.50       12.75       13.00       13.25       13.50       13.75       14.00       14.25       14.50       14.75       15.00       15.25       15.50       15.75       16.00       16.25       16.50       16.75       17.00       17.25       17.50       17.75       18.00       18.25       18.50       18.75       19.00       19.25       19.50       19.75       20.00       20.25       20.50       20.75       21.00       21.25       21.50       21.75       22.00       22.25       22.50       22.75       23.00       23.25       23.50       23.75       24.00       24.25       24.50       24.75       25.00
 Period
         17.0     5283.81     5039.49     4806.47     4584.22     4372.25     4170.08     3977.26     3793.23     3617.71     3450.31     3290.66     3138.93     2994.20     2856.14     2724.44     2600.00     2481.24     2367.90     2259.75     2156.53     2058.03     1964.02     1874.31     1789.51     1708.55     1631.25     1557.45     1486.99     1419.72     1355.49     1294.16     1235.90     1180.26     1127.12     1076.38     1027.92      981.64      937.45      895.25      854.94      816.45      779.70      744.59      711.13      679.16      648.63      619.48      591.63      565.04      539.64      515.39      492.22      470.10      448.97      428.79      409.51      391.11      373.53      356.74      340.70      325.39      310.76      296.79      283.45      270.71      258.55      246.92      235.91      225.39
         17.2     5384.53     5138.09     4902.94     4678.55     4464.42     4260.10     4065.13     3878.95     3701.31     3531.79     3370.04     3216.23     3069.44     2929.35     2795.65     2669.26     2548.58     2433.36     2323.35     2218.31     2118.02     2022.27     1930.84     1844.39     1761.82     1682.94     1607.59     1535.62     1466.87     1401.19     1338.46     1278.84     1221.89     1167.46     1115.47     1065.78     1018.31      972.96      929.62      888.22      848.66      810.86      774.74      740.31      707.40      675.95      645.91      617.20      589.76      563.55      538.50      514.56      491.69      469.83      448.95      428.99      409.92      391.70      374.29      357.65      341.75      326.56      312.05      298.18      284.92      272.26      260.16      248.68      237.72
         18.0     5782.65     5528.33     5285.19     5052.74     4830.52     4618.07     4414.96     4220.67     4034.92     3857.35     3687.60     3525.83     3371.16     3223.28     3081.88     2947.99     2819.92     2697.41     2580.22     2468.12     2360.89     2258.32     2160.21     2067.34     1978.46     1893.41     1812.01     1734.11     1659.56     1588.21     1519.93     1455.00     1392.84     1333.33     1276.37     1221.84     1169.64     1119.67     1071.84     1026.05      982.21      940.25      900.08      861.77      825.08      789.96      756.33      724.14      693.31      663.80      635.54      608.49      582.59      557.79      534.04      511.31      489.54      468.70      448.75      429.65      411.36      393.85      377.08      361.03      345.66      330.95      316.86      303.49      290.69
         18.5     6027.39     5768.56     5520.85     5283.78     5056.89     4839.74     4631.92     4432.90     4242.43     4060.14     3885.69     3719.25     3559.93     3407.44     3261.48     3123.14     2990.66     2863.81     2742.33     2626.01     2514.62     2407.95     2305.81     2209.07     2116.39     2027.60     1942.53     1861.03     1782.95     1708.15     1636.48     1568.30     1502.96     1440.34     1380.33     1322.82     1267.70     1214.88     1164.27     1115.76     1069.27     1024.72      982.03      941.30      902.26      864.84      828.97      794.60      761.64      730.05      699.78      670.76      642.94      616.27      590.71      566.22      542.73      520.23      498.65      477.97      458.15      439.15      420.93      403.48      386.74      370.70      355.33      340.73      326.73
         19.0     6268.78     6005.77     5753.80     5512.40     5281.12     5059.55     4847.28     4643.79     4448.85     4262.09     4083.17     3912.26     3748.51     3591.61     3441.28     3298.66     3161.95     3030.91     2905.29     2784.89     2669.47     2558.84     2452.79     2352.30     2255.92     2163.49     2074.84     1989.83     1908.30     1830.11     1755.13     1683.76     1615.30     1549.62     1486.61     1426.16     1368.17     1312.54     1259.17     1207.97     1158.86     1111.74     1066.53     1023.41      982.03      942.32      904.22      867.66      832.58      798.91      766.61      735.61      705.87      677.33      649.94      623.66      598.45      574.25      551.03      528.75      507.37      486.86      467.17      448.28      430.16      412.76      396.07      380.22      365.00
         19.5     6506.73     6239.83     5983.88     5738.43     5503.04     5277.31     5060.84     4853.14     4653.96     4462.95     4279.78     4104.63     3936.64     3775.52     3621.00     3474.28     3333.51     3198.44     3068.85     2944.50     2825.19     2710.72     2600.89     2496.75     2396.78     2300.81     2208.69     2120.26     2035.36     1953.87     1875.63     1801.16     1729.63     1660.95     1595.00     1531.66     1470.84     1412.44     1356.35     1302.49     1250.77     1201.11     1153.41     1107.92     1064.21     1022.23      981.91      943.18      905.97      870.23      835.91      802.93      771.26      740.84      711.61      683.54      656.58      630.68      605.80      581.90      558.95      536.90      515.72      495.38      475.84      457.07      439.04      421.90      405.43
         20.0     6741.14     6470.63     6210.97     5961.73     5722.50     5492.86     5272.44     5060.75     4857.56     4662.53     4475.33     4296.13     4124.10     3958.96     3800.43     3649.78     3505.11     3366.17     3232.74     3104.60     2981.53     2863.35     2749.85     2642.19     2538.74     2439.34     2343.84     2252.07     2163.90     2079.17     1997.77     1920.25     1845.74     1774.12     1705.28     1639.11     1575.51     1514.37     1455.61     1399.13     1344.84     1292.66     1242.50     1194.65     1148.65     1104.42     1061.89     1021.00      981.68      943.88      907.53      872.58      838.98      806.67      775.61      745.74      717.03      689.42      662.87      637.34      612.80      589.20      566.51      544.70      523.72      503.55      484.16      465.72      447.99
         20.5     6971.95     6698.09     6434.98     6182.20     5939.36     5706.06     5481.92     5266.47     5059.50     4860.66     4669.63     4486.57     4310.69     4141.71     3979.34     3824.94     3676.53     3533.87     3396.75     3264.95     3138.27     3016.50     2899.46     2788.39     2681.57     2578.84     2480.06     2385.05     2293.68     2205.82     2121.32     2040.84     1963.41     1888.91     1817.25     1748.30     1681.97     1618.16     1556.76     1497.70     1440.88     1386.21     1333.62     1283.45     1235.18     1188.72     1144.00     1100.97     1059.56     1019.71      981.35      944.44      908.91      874.72      841.82      810.16      779.68      750.36      722.13      694.97      668.83      643.67      619.46      596.16      573.73      552.15      531.38      511.63      492.60
         21.0     7199.11     6922.14     6655.82     6399.75     6153.53     5916.79     5689.15     5470.17     5259.61     5057.17     4862.51     4675.79     4496.24     4323.59     4157.57     3999.57     3847.57     3701.35     3560.69     3425.37     3295.20     3169.97     3049.50     2935.14     2825.06     2719.11     2617.14     2518.99     2424.52     2333.60     2246.08     2162.71     2082.44     2005.14     1930.71     1859.05     1790.05     1723.60     1659.63     1598.02     1538.71     1481.59     1426.60     1374.16     1323.64     1274.98     1228.11     1182.96     1139.47     1097.58     1057.23     1018.36      980.92      944.86      910.13      876.67      844.44      813.40      783.49      754.69      726.94      700.22      674.48      649.68      625.80      602.79      580.63      559.54      539.22
         21.5     7422.60     7142.75     6873.45     6614.31     6364.94     6124.96     5894.04     5671.72     5457.79     5251.93     5053.83     4863.64     4680.60     4504.45     4334.93     4173.49     4018.06     3868.43     3724.36     3585.66     3452.13     3323.56     3199.79     3082.25     2969.03     2859.96     2754.90     2653.70     2556.22     2462.32     2371.87     2285.69     2202.65     2122.62     2045.49     1971.17     1899.55     1830.54     1764.03     1699.93     1638.17     1578.65     1521.29     1466.60     1413.88     1363.05     1314.05     1266.81     1221.27     1177.36     1135.04     1094.23     1054.89     1016.97      980.41      945.16      911.19      878.43      846.85      816.41      787.06      758.76      731.48      705.19      679.84      655.40      631.83      609.41      587.77
         22.0     7642.40     7359.89     7087.83     6825.82     6573.50     6330.51     6096.50     5871.04     5653.92     5444.84     5243.48     5049.98     4863.62     4684.14     4511.28     4346.56     4187.85     4034.94     3887.61     3745.66     3608.89     3477.12     3350.15     3229.55     3113.28     3001.21     2893.16     2789.01     2688.60     2591.81     2498.51     2409.60     2323.86     2241.17     2161.42     2084.50     2010.33     1938.79     1869.80     1803.27     1739.10     1677.22     1617.54     1560.64     1505.75     1452.79     1401.69     1352.38     1304.82     1258.92     1214.64     1171.92     1130.70     1090.93     1052.56     1015.53      979.81      945.35      912.10      880.02      849.07      819.20      790.39      762.59      735.76      709.88      684.92      661.14      638.19
         22.5     7858.50     7573.54     7298.92     7034.25     6779.18     6533.35     6296.45     6068.04     5847.92     5635.78     5431.34     5234.71     5045.19     4862.54     4686.50     4518.64     4356.79     4200.74     4050.28     3905.21     3765.33     3630.47     3500.43     3376.87     3257.67     3142.69     3031.75     2924.74     2821.50     2721.91     2625.83     2534.27     2445.91     2360.63     2278.32     2198.88     2122.21     2048.22     1976.80     1907.87     1841.35     1777.15     1715.19     1656.13     1599.11     1544.05     1490.89     1439.55     1389.99     1342.13     1295.92     1251.30     1208.22     1166.62     1126.45     1087.67     1050.22     1014.06      979.14      945.43      912.88      881.45      851.10      821.79      793.50      766.18      739.80      714.67      690.40
         23.0     8070.93     7783.71     7506.71     7239.57     6981.93     6733.46     6493.84     6262.66     6039.71     5824.69     5617.33     5417.72     5225.21     5039.54     4860.46     4689.61     4524.76     4365.71     4212.24     4064.18     3921.31     3783.47     3650.48     3524.08     3402.05     3284.25     3170.53     3060.74     2954.76     2852.45     2753.68     2659.56     2568.65     2480.85     2396.05     2314.15     2235.05     2158.65     2084.87     2013.61     1944.78     1878.30     1814.10     1752.93     1693.82     1636.71     1581.52     1528.19     1476.66     1426.86     1378.75     1332.26     1287.34     1243.93     1201.98     1161.45     1122.29     1084.44     1047.88     1012.54      978.40      945.41      913.53      882.73      852.96      824.20      796.41      769.93      744.34
         23.5     8279.69     7990.39     7711.20     7441.76     7181.74     6930.80     6688.63     6454.84     6229.22     6011.49     5801.37     5598.95     5403.58     5215.03     5033.07     4859.36     4691.64     4529.72     4373.38     4222.44     4076.71     3936.01     3800.16     3671.03     3546.27     3425.76     3309.35     3196.89     3088.25     2983.30     2881.92     2785.31     2691.93     2601.69     2514.47     2430.18     2348.71     2269.97     2193.87     2120.32     2049.24     1980.54     1914.15     1850.91     1789.76     1730.62     1673.45     1618.16     1564.70     1513.00     1463.01     1414.68     1367.94     1322.74     1279.04     1236.78     1195.92     1156.41     1118.20     1081.26     1045.54     1010.99      977.59      945.29      914.06      883.86      854.66      826.84      799.92
         24.0     8484.83     8193.61     7912.39     7640.83     7378.58     7125.33     6880.78     6644.54     6416.42     6196.13     5983.40     5778.30     5580.23     5388.95     5204.23     5027.80     4857.35     4692.68     4533.59     4379.89     4231.41     4087.96     3949.37     3817.60     3690.22     3567.10     3448.08     3333.03     3221.83     3114.33     3010.42     2911.40     2815.63     2723.01     2633.44     2546.82     2463.05     2382.03     2303.68     2227.90     2154.62     2083.74     2015.20     1949.94     1886.79     1825.68     1766.56     1709.35     1653.99     1600.42     1548.59     1498.44     1449.91     1402.96     1357.52     1313.56     1271.02     1229.85     1190.02     1151.48     1114.19     1078.11     1043.19     1009.41      976.72      945.09      914.48      885.32      857.08
         24.5     8686.36     8393.39     8110.31     7836.77     7572.46     7317.06     7070.27     6831.74     6601.26     6378.56     6163.36     5955.73     5755.10     5561.22     5373.87     5194.85     5021.79     4854.49     4692.77     4536.43     4385.30     4239.21     4097.99     3963.68     3833.78     3708.14     3586.61     3469.07     3355.38     3245.41     3139.05     3037.70     2939.61     2844.70     2752.85     2663.96     2577.95     2494.71     2414.16     2336.21     2260.78     2187.78     2117.14     2049.90     1984.80     1921.76     1860.73     1801.64     1744.42     1689.02     1635.38     1583.44     1533.15     1484.46     1437.32     1391.67     1347.47     1304.68     1263.24     1223.12     1184.28     1146.67     1110.25     1074.99     1040.85     1007.80      975.79      945.29      915.74
         25.0     8884.33     8589.76     8304.96     8029.60     7763.37     7505.96     7257.10     7016.42     6783.72     6558.74     6341.22     6131.19     5928.12     5731.77     5541.93     5360.44     5184.88     5015.08     4850.83     4691.97     4538.31     4389.68     4245.92     4109.18     3976.85     3848.78     3724.84     3604.88     3488.79     3376.44     3267.71     3164.10     3063.77     2966.63     2872.56     2781.48     2693.29     2607.89     2525.20     2445.14     2367.61     2292.54     2219.85     2150.68     2083.68     2018.76     1955.86     1894.92     1835.88     1778.68     1723.27     1669.57     1617.56     1567.16     1518.33     1471.03     1425.19     1380.79     1337.77     1296.09     1255.71     1216.59     1178.68     1141.96     1106.38     1071.91     1038.51     1006.68      975.83
         25.5     9078.79     8782.76     8496.38     8219.34     7951.33     7692.06     7441.24     7198.55     6963.77     6736.64     6516.93     6304.64     6099.26     5900.57     5708.35     5524.50     5346.57     5174.37     5007.72     4846.43     4690.34     4539.27     4393.08     4254.01     4119.34     3988.93     3862.66     3740.38     3621.97     3507.31     3396.28     3290.49     3188.00     3088.70     2992.49     2899.28     2808.97     2721.47     2636.70     2554.57     2475.00     2397.91     2323.22     2252.18     2183.31     2116.55     2051.83     1989.09     1928.27     1869.31     1812.15     1756.74     1703.02     1650.95     1600.47     1551.53     1504.09     1458.10     1413.51     1370.29     1328.39     1287.77     1248.39     1210.22     1173.22     1137.34     1102.57     1069.42     1037.27
         26.0     9269.79     8972.42     8684.59     8406.00     8136.35     7875.34     7622.71     7378.13     7141.40     6912.26     6690.47     6476.03     6268.47     6067.55     5873.08     5686.99     5506.79     5332.30     5163.35     4999.74     4841.32     4687.92     4539.38     4398.07     4261.16     4128.51     3999.98     3875.46     3754.82     3637.93     3524.68     3416.79     3312.20     3210.81     3112.52     3017.24     2924.88     2835.35     2748.55     2664.42     2582.86     2503.79     2427.15     2354.28     2283.61     2215.05     2148.56     2084.06     2021.49     1960.81     1901.94     1844.84     1789.46     1735.74     1683.63     1633.09     1584.06     1536.51     1490.38     1445.64     1402.24     1360.15     1319.31     1279.71     1241.29     1204.03     1167.88     1133.43     1100.00
         26.5     9457.36     9158.79     8869.64     8589.62     8318.45     8055.83     7801.50     7555.16     7316.60     7085.57     6861.83     6645.36     6435.72     6232.70     6036.07     5847.85     5665.50     5488.83     5317.67     5151.84     4991.19     4835.55     4684.76     4541.30     4402.23     4267.42     4136.73     4010.05     3887.25     3768.21     3652.82     3542.89     3436.27     3332.86     3232.56     3135.28     3040.93     2949.42     2860.66     2774.57     2691.08     2610.09     2531.55     2456.90     2384.46     2314.16     2245.93     2179.71     2115.44     2053.07     1992.54     1933.79     1876.77     1821.44     1767.74     1715.62     1665.03     1615.94     1568.30     1522.06     1477.18     1433.63     1391.36     1350.33     1310.52     1271.88     1234.38     1198.64     1163.93
         27.0     9641.58     9341.91     9051.56     8770.24     8497.65     8233.54     7977.64     7729.65     7489.37     7256.56     7030.99     6812.60     6601.00     6395.97     6197.31     6007.06     5822.64     5643.89     5470.63     5302.69     5139.90     4982.11     4829.16     4683.63     4542.49     4405.60     4272.84     4144.07     4019.19     3898.07     3780.60     3668.72     3560.14     3454.78     3352.53     3253.32     3157.03     3063.60     2972.94     2884.95     2799.57     2716.72     2636.32     2559.95     2485.79     2413.79     2343.87     2275.97     2210.04     2146.02     2083.86     2023.49     1964.88     1907.96     1852.69     1799.02     1746.91     1696.31     1647.17     1599.46     1553.12     1508.13     1464.45     1422.03     1380.83     1340.83     1301.99     1264.98     1229.01
         27.5     9822.49     9521.84     9230.40     8947.87     8674.00     8408.50     8151.13     7901.61     7659.72     7425.24     7197.94     6977.74     6764.28     6557.35     6356.75     6164.57     5978.20     5797.47     5622.19     5452.22     5287.39     5127.53     4972.52     4825.01     4681.88     4542.99     4408.23     4277.46     4150.57     4027.45     3907.97     3794.20     3683.73     3576.48     3472.35     3371.26     3273.11     3177.81     3085.29     2995.47     2908.26     2823.59     2741.38     2663.33     2587.51     2513.85     2442.28     2372.75     2305.20     2239.57     2175.81     2113.87     2053.69     1995.22     1938.42     1883.23     1829.62     1777.53     1726.93     1677.76     1630.00     1583.59     1538.51     1494.71     1452.16     1410.82     1370.65     1332.37     1295.16
         28.0    10000.16     9698.63     9406.19     9122.57     8847.50     8580.73     8322.00     8071.05     7827.66     7591.61     7362.68     7140.77     6925.56     6716.83     6514.39     6320.37     6132.14     5949.51     5772.32     5600.41     5433.61     5271.79     5114.78     4965.38     4820.34     4679.53     4542.84     4410.14     4281.32     4156.26     4034.86     3919.26     3806.97     3697.90     3591.95     3489.04     3389.08     3291.98     3197.66     3106.05     3017.06     2930.62     2846.65     2766.98     2689.54     2614.26     2541.09     2469.97     2400.84     2333.64     2268.33     2204.84     2143.13     2083.15     2024.84     1968.17     1913.08     1859.54     1807.49     1756.90     1707.73     1659.93     1613.47     1568.32     1524.42     1481.75     1440.28     1400.76     1362.32
         28.5    10174.63     9872.32     9578.99     9294.37     9018.21     8750.26     8490.27     8237.98     7993.19     7755.67     7525.21     7301.70     7084.82     6874.38     6670.20     6474.44     6284.43     6100.00     5920.98     5747.21     5578.54     5414.82     5255.91     5104.69     4957.82     4815.17     4676.63     4542.07     4411.39     4284.46     4161.19     4043.83     3929.79     3818.96     3711.25     3606.58     3504.87     3406.02     3309.96     3216.61     3125.89     3037.74     2952.06     2870.81     2791.79     2714.95     2640.22     2567.55     2496.88     2428.15     2361.32     2296.33     2233.12     2171.65     2111.88     2053.75     1997.22     1942.25     1888.79     1836.80     1786.25     1737.08     1689.27     1642.77     1597.55     1553.58     1510.82     1470.07     1430.42
         29.0    10345.98    10042.98     9748.84     9463.32     9186.16     8917.12     8655.96     8402.44     8156.33     7917.44     7685.55     7460.51     7242.06     7030.01     6824.17     6626.76     6435.06     6248.91     6068.14     5892.60     5722.14     5556.61     5395.87     5242.90     5094.27     4949.86     4809.54     4673.20     4540.72     4412.00     4286.92     4167.87     4052.13     3939.60     3830.20     3723.83     3620.42     3519.88     3422.13     3327.10     3234.70     3144.87     3057.54     2974.75     2894.21     2815.84     2739.60     2665.42     2593.25     2523.04     2454.72     2388.26     2323.59     2260.68     2199.47     2139.91     2081.97     2025.60     1970.75     1917.39     1865.48     1814.97     1765.82     1718.01     1671.49     1626.24     1582.20     1540.25     1499.40
         29.5    10514.26    10210.65     9915.79     9629.46     9351.39     9081.35     8819.11     8564.43     8317.11     8076.93     7843.69     7617.22     7397.29     7183.71     6976.29     6777.31     6584.01     6396.22     6213.79     6036.55     5864.38     5697.11     5534.62     5379.99     5229.67     5083.56     4941.53     4803.47     4669.26     4538.81     4412.00     4291.32     4173.94     4059.77     3948.73     3840.72     3735.67     3633.49     3534.11     3437.44     3343.42     3251.97     3163.02     3078.75     2996.72     2916.88     2839.16     2763.52     2689.89     2618.22     2548.47     2480.57     2414.48     2350.15     2287.53     2226.59     2167.26     2109.52     2053.32     1998.61     1945.36     1893.53     1843.08     1793.97     1746.18     1699.65     1654.37     1611.22     1569.20
         30.0    10679.54    10375.39    10079.90     9792.83     9513.93     9242.98     8979.74     8724.00     8475.54     8234.16     7999.65     7771.83     7550.50     7335.47     7126.57     6926.10     6731.27     6541.92     6357.90     6179.05     6005.24     5836.31     5672.14     5515.91     5363.98     5216.24     5072.56     4932.85     4796.98     4664.86     4536.37     4414.12     4295.17     4179.43     4066.80     3957.21     3850.57     3746.80     3645.83     3547.58     3451.98     3358.96     3268.44     3182.73     3099.27     3017.99     2938.85     2861.78     2786.73     2713.65     2642.49     2573.19     2505.71     2440.00     2376.01     2313.70     2253.03     2193.95     2136.41     2080.39     2025.83     1972.70     1920.97     1870.59     1821.54     1773.77     1727.26     1682.94     1639.76
         30.5    10841.86    10537.26    10241.21     9953.48     9673.83     9402.04     9137.89     8881.16     8631.65     8389.14     8153.45     7924.36     7701.71     7485.31     7275.00     7073.12     6876.84     6686.00     6500.47     6320.08     6144.69     5974.18     5808.39     5650.64     5497.16     5347.86     5202.61     5061.30     4923.84     4790.10     4660.00     4536.25     4415.78     4298.51     4184.35     4073.23     3965.06     3859.76     3757.25     3657.47     3560.34     3465.79     3373.75     3286.64     3201.79     3119.12     3038.59     2960.14     2883.71     2809.25     2736.72     2666.06     2597.23     2530.17     2464.85     2401.21     2339.21     2278.82     2219.98     2162.66     2106.83     2052.43     1999.44     1947.82     1897.52     1848.53     1800.81     1755.34     1711.03
         31.0    11001.30    10696.31    10399.77    10111.45     9831.13     9558.58     9293.59     9035.95     8785.45     8541.90     8305.10     8074.82     7850.92     7633.24     7421.58     7218.36     7020.70     6828.46     6641.48     6459.62     6282.74     6110.70     5943.37     5784.15     5629.20     5478.39     5331.63     5188.80     5049.79     4914.51     4782.85     4657.64     4535.72     4416.98     4301.35     4188.75     4079.09     3972.31     3868.32     3767.06     3668.44     3572.41     3478.89     3390.43     3304.23     3220.21     3138.33     3058.54     2980.77     2904.98     2831.12     2759.13     2688.98     2620.61     2553.98     2489.04     2425.75     2364.07     2303.96     2245.38     2188.29     2132.65     2078.43     2025.58     1974.08     1923.88     1874.96     1828.37     1782.94
         31.5    11157.91    10852.60    10555.64    10266.80     9985.88     9712.63     9446.87     9188.39     8936.99     8692.46     8454.62     8223.22     7998.15     7779.25     7566.33     7361.84     7162.87     6969.28     6780.93     6597.66     6419.35     6245.86     6077.05     5916.43     5760.06     5607.82     5459.60     5315.30     5174.82     5038.04     4904.89     4778.28     4654.95     4534.80     4417.75     4303.72     4192.63     4084.42     3978.99     3876.29     3776.24     3678.77     3583.81     3494.05     3406.54     3321.22     3238.03     3156.93     3077.86     3000.78     2925.62     2852.34     2780.90     2711.25     2643.35     2577.14     2512.59     2449.66     2388.31     2328.49     2270.17     2213.31     2157.88     2103.83     2051.14     1999.76     1949.68     1901.98     1855.45
         32.0    11311.75    11006.18    10708.86    10419.58    10138.11     9864.24     9597.77     9338.52     9086.28     8840.85     8602.04     8369.59     8143.42     7923.35     7709.24     7503.55     7303.34     7108.48     6918.81     6734.21     6554.53     6379.64     6209.43     6047.47     5889.74     5736.12     5586.50     5440.80     5298.89     5160.68     5026.07     4898.13     4773.44     4651.93     4533.51     4418.11     4305.64     4196.04     4089.22     3985.13     3883.68     3784.82     3688.47     3597.45     3508.67     3422.09     3337.64     3255.27     3174.94     3096.59     3020.17     2945.64     2872.95     2802.05     2732.90     2665.46     2599.68     2535.53     2472.96     2411.93     2352.41     2294.36     2237.74     2182.52     2128.66     2076.13     2024.89     1976.11     1928.50
         32.5    11462.88    11157.11    10859.49    10569.82    10287.87    10013.44     9746.33     9486.38     9233.35     8987.08     8747.38     8513.94     8286.73     8065.58     7850.33     7643.50     7442.12     7246.04     7055.13     6869.25     6688.26     6512.05     6340.47     6177.24     6018.21     5863.27     5712.32     5565.25     5421.98     5282.39     5146.39     5017.16     4891.17     4768.35     4648.61     4531.88     4418.07     4307.13     4198.97     4093.53     3990.74     3890.52     3792.83     3700.58     3610.58     3522.77     3437.10     3353.51     3271.95     3192.37     3114.73     3038.98     2965.07     2892.96     2822.60     2753.95     2686.98     2621.63     2557.87     2495.66     2434.96     2375.75     2317.97     2261.59     2206.59     2152.92     2100.56     2050.72     2002.05
         33.0    11611.36    11305.44    11007.58    10717.57    10435.20    10160.27     9892.58     9631.98     9378.25     9131.20     8890.66     8656.29     8428.10     8205.93     7989.61     7781.70     7579.20     7381.97     7189.88     7002.78     6820.55     6643.06     6470.19     6305.73     6145.46     5989.25     5837.02     5688.66     5544.07     5403.15     5265.81     5135.34     5008.10     4884.02     4763.01     4644.99     4529.90     4417.67     4308.21     4201.47     4097.37     3995.85     3896.84     3803.42     3712.23     3623.24     3536.37     3451.59     3368.85     3288.08     3209.25     3132.31     3057.22     2983.93     2912.39     2842.57     2774.42     2707.91     2642.99     2579.63     2517.78     2457.42     2398.51     2341.01     2284.88     2230.10     2176.64     2125.75     2076.05
         33.5    11757.25    11451.23    11153.18    10862.89    10580.15    10304.78    10036.57     9775.38     9520.99     9273.22     9031.90     8796.67     8567.56     8344.42     8127.10     7918.17     7714.61     7516.29     7323.06     7134.80     6951.39     6772.68     6598.57     6432.95     6271.48     6114.07     5960.61     5810.99     5665.14     5522.94     5384.32     5252.66     5124.22     4998.92     4876.68     4757.43     4641.10     4527.61     4416.90     4308.90     4203.53     4100.75     4000.47     3905.91     3813.59     3723.44     3635.43     3549.49     3465.59     3383.67     3303.69     3225.60     3149.36     3074.91     3002.23     2931.26     2861.98     2794.32     2728.27     2663.78     2600.82     2539.34     2479.32     2420.71     2363.49     2307.62     2253.08     2201.17     2150.46
         34.0    11900.59    11594.53    11296.34    11005.82    10722.77    10447.00    10178.32     9916.60     9661.61     9413.18     9171.13     8935.09     8705.13     8481.08     8262.80     8052.91     7848.35     7648.99     7454.69     7265.33     7080.78     6900.91     6725.62     6558.88     6396.27     6237.70     6083.06     5932.25     5785.18     5641.75     5501.89     5369.08     5239.49     5113.02     4989.60     4869.17     4751.64     4636.94     4525.02     4415.80     4309.21     4205.20     4103.69     4008.03     3914.60     3823.35     3734.22     3647.17     3562.15     3479.11     3398.01     3318.80     3241.44     3165.87     3092.07     3019.99     2949.60     2880.84     2813.68     2748.09     2684.03     2621.46     2560.35     2500.67     2442.38     2385.44     2329.83     2276.93     2225.22
         34.5    12041.46    11735.39    11437.11    11146.40    10863.09    10586.98    10317.88    10055.68     9800.14     9551.10     9308.38     9071.59     8840.82     8615.92     8396.74     8185.94     7980.43     7780.08     7584.77     7394.35     7208.72     7027.74     6851.31     6683.51     6519.82     6360.14     6204.36     6052.41     5904.17     5759.57     5618.50     5484.61     5353.90     5226.31     5101.76     4980.17     4861.49     4745.63     4632.54     4522.13     4414.36     4309.16     4206.47     4109.75     4015.25     3922.92     3832.72     3744.59     3658.48     3574.36     3492.17     3411.87     3333.42     3256.77     3181.89     3108.72     3037.24     2967.40     2899.17     2832.51     2767.38     2703.74     2641.57     2580.83     2521.49     2463.51     2406.87     2352.98     2300.31
         35.0    12179.89    11873.87    11575.53    11284.69    11001.16    10724.75    10455.29    10192.65     9936.62     9687.01     9443.68     9206.18     8974.65     8748.95     8528.93     8317.27     8110.87     7909.59     7713.30     7521.88     7335.22     7153.19     6975.67     6806.85     6642.12     6481.38     6324.52     6171.46     6022.11     5876.37     5734.16     5599.21     5467.43     5338.76     5213.12     5090.43     4970.63     4853.65     4739.42     4627.89     4518.97     4412.62     4308.77     4211.03     4115.50     4022.13     3930.89     3841.71     3754.56     3669.38     3586.14     3504.79     3425.28     3347.57     3271.63     3197.41     3124.88     3053.99     2984.70     2916.99     2850.82     2786.15     2722.94     2661.17     2600.80     2541.80     2484.14     2429.30     2375.67
         35.5    12315.96    12010.01    11711.66    11420.73    11137.02    10860.36    10590.57    10327.55    10071.07     9820.95     9577.05     9338.89     9106.66     8880.21     8659.39     8446.92     8239.67     8037.50     7840.30     7647.93     7460.28     7277.24     7098.69     6928.90     6763.18     6601.42     6443.53     6289.41     6138.98     5992.15     5848.83     5712.87     5580.08     5450.37     5323.67     5199.92     5079.05     4960.98     4845.66     4733.03     4623.01     4515.54     4410.58     4311.84     4215.32     4120.95     4028.70     3938.51     3850.35     3764.15     3679.89     3597.51     3516.97     3438.24     3361.27     3286.03     3212.47     3140.55     3070.25     3001.52     2934.32     2868.63     2804.42     2741.64     2680.26     2620.26     2561.60     2505.83     2451.27
         36.0    12449.69    12143.86    11845.55    11554.56    11270.72    10993.85    10723.78    10460.42    10203.53     9952.94     9708.52     9469.76     9236.87     9009.71     8788.13     8574.91     8366.86     8163.85     7965.77     7772.50     7583.92     7399.91     7220.37     7049.66     6882.99     6720.25     6561.37     6406.24     6254.78     6106.90     5962.52     5825.59     5691.81     5561.11     5433.40     5308.63     5186.72     5067.61     4951.24     4837.54     4726.45     4617.91     4511.86     4412.17     4314.69     4219.36     4126.13     4034.96     3945.81     3858.63     3773.37     3690.00     3608.47     3528.74     3450.78     3374.53     3299.97     3227.06     3155.76     3086.04     3017.85     2951.17     2885.97     2822.20     2759.85     2698.87     2639.24     2582.55     2527.09
